Light	Light	Light	Light	Light	Light	Light	Light	Light	Light	Light	Light	Light	Light	Light	Light	Light	Light	Light	Light	Light	Light	Light	Light	Light	Light	Light	Light	Light	Light	Light	Light	Light	Light	Light	Light	Light	Light	Light	Light	Light	Light	Light	Light	Light	Light	Light	Light
Optode1-730nm	Optode1-Ambient	Optode1-850nm	Optode2-730nm	Optode2-Ambient	Optode2-850nm	Optode3-730nm	Optode3-Ambient	Optode3-850nm	Optode4-730nm	Optode4-Ambient	Optode4-850nm	Optode5-730nm	Optode5-Ambient	Optode5-850nm	Optode6-730nm	Optode6-Ambient	Optode6-850nm	Optode7-730nm	Optode7-Ambient	Optode7-850nm	Optode8-730nm	Optode8-Ambient	Optode8-850nm	Optode9-730nm	Optode9-Ambient	Optode9-850nm	Optode10-730nm	Optode10-Ambient	Optode10-850nm	Optode11-730nm	Optode11-Ambient	Optode11-850nm	Optode12-730nm	Optode12-Ambient	Optode12-850nm	Optode13-730nm	Optode13-Ambient	Optode13-850nm	Optode14-730nm	Optode14-Ambient	Optode14-850nm	Optode15-730nm	Optode15-Ambient	Optode15-850nm	Optode16-730nm	Optode16-Ambient	Optode16-850nm
282.101162479645	140.449958973577	557.153418678664	1378.56078198875	225.671884714022	1950.71134667392	677.625745686265	140.938843073884	1322.90018579326	1028.1179741329	159.058450728946	1448.15248575725	951.857082828304	130	2162.29219462925	875.630130021971	147.821767892706	1252.2611215917	617.059777951843	128	1145.56587758236	993.052359451222	171.061156926116	1367.98991948931	827.168588934569	141	1518.22732873483	1406.29535984991	185.938843073884	2100.90568287343	1253.98872966066	138.997345554206	2364.79445442614	651.505445481399	149.141805662347	952.129473658857	591.104717422414	127.858194337653	1357.07055994111	826.89617492064	137.243517828962	1644.80832568123	313.999416492102	127	785.32305269955	639.992601754495	175.482977383082	1060.91425914166
282.245536353095	140.458409505541	558.293020731935	1379.99996590324	226.099033921344	1953.84758824923	677.990819943903	140.95927654881	1325.43402083206	1029.04379642058	159.102663425828	1451.10726195955	952.78521785841	130	2169.17243427818	876.893758235783	147.90908637678	1257.43177395792	617.716147101386	128	1150.22980701889	994.417042085302	171.184284051494	1373.362966439	827.947928793261	141	1524.13605282732	1408.20446902728	186.101082211157	2108.12000931867	1255.24162679017	138.995349747749	2375.21092418056	652.248860067903	149.176381527814	955.777193162353	592.555719777598	127.893817103856	1363.79517111617	829.965732329099	137.332850237511	1654.39231662801	314.257209786766	127	787.518309032871	641.422738132465	175.631970509165	1065.79394945117
282.423558713043	140.477476202851	559.454207031095	1381.62596020806	226.39417383891	1956.99984085661	678.458513785115	140.976220778044	1327.94991312862	1030.27553626423	159.16463362509	1454.3045815917	953.652312971052	130	2175.75194261034	877.999619015969	147.984904450362	1262.27815800802	618.370834167245	128	1154.85762079802	995.79511077795	171.309145484607	1378.56383259689	828.795241190546	141	1530.26300646631	1410.00528444613	186.257457979105	2115.24773529584	1256.50407731998	138.988250197392	2386.11160426418	652.948772452042	149.205513644112	959.611415970806	594.201962677534	127.927093271276	1371.46799975681	833.275043129545	137.44209736406	1665.32498902131	314.54221116055	127	790.055203561765	642.913828376317	175.765167743241	1071.16841180615
282.625054192658	140.50605612887	560.594745483917	1383.36237689892	226.568317516331	1960.03909318808	679.00071914623	140.988250197392	1330.33960118953	1031.73873727986	159.244469088175	1457.58043307644	954.428253668667	130	2181.70042465022	878.920068665813	148.046874649624	1266.55528289058	619.007102457647	128	1159.2607882362	997.146427397486	171.434792666016	1383.35806693275	829.658039554086	141	1536.29397866058	1411.59889577972	186.402498757427	2121.89675303453	1257.63999908351	138.974893555147	2396.76287825294	653.541734811205	149.226729392565	963.322480299073	595.956663827239	127.954626296559	1379.63955593957	836.674226412969	137.559229858837	1676.89885484304	314.836962696578	127	792.769566052175	644.408377767599	175.886962838548	1076.73855640886
282.834173541776	140.54097556216	561.673953425279	1385.11984448574	226.653084540775	1962.8790877028	679.570999724188	140.995349747749	1332.51222180476	1033.3200689072	159.339687930007	1460.76291550423	955.096678902677	130	2186.8306369983	879.652719459537	148.096431958906	1270.13991237231	619.614798480601	128	1163.31236591054	998.438477104103	171.55790263594	1387.61634721621	830.48982828269	141	1541.96642395192	1412.92464539696	186.532289989958	2127.81421198789	1258.55587015374	138.954626296559	2406.5321152839	653.988189007312	149.238758811913	966.647491423087	597.73075203837	127.974893555147	1387.78262102293	840.007350504534	137.673127237637	1688.2788954641	315.127925663518	127	795.477127342356	645.853241342203	176.000422202465	1082.1652979057
283.032994650796	140.578358828542	562.652001561875	1386.80202804595	226.688286956505	1965.46057699494	680.11420973947	140.998672777103	1334.38678498658	1034.88575598695	159.445332480036	1463.678449081	955.65571232055	130	2191.10402228608	880.214099210154	148.13634937786	1273.0254452681	620.192510435443	128	1166.958023529	999.647011492778	171.673127237637	1391.31367605421	831.26043034779	141	1547.09271683742	1413.96831210284	186.642584792237	2132.8942529547	1259.21540742295	138.927093271276	2414.95563643309	654.275564249321	149.241586843051	969.39875424937	599.440390604244	127.988250197392	1395.36052779515	843.128078558405	137.772882225897	1698.62342660512	315.40489134536	127	797.993097824418	647.203959118528	176.105399847623	1087.11298639451
283.206452485471	140.612318044933	563.49323951848	1388.32177494828	226.711729248123	1967.73799611606	680.578576199004	141	1335.89663399992	1036.31001829004	159.554667519964	1466.16544161449	956.119310424457	130	2194.59909500068	880.632940442804	148.170932971471	1275.2891492394	620.748245220328	128	1170.20107069181	1000.7601199948	171.774209448794	1394.49775978689	831.959275300241	141	1551.55380505571	1414.75639518442	186.729097244075	2137.13601329989	1259.63683234307	138.893817103856	2421.73863103304	654.413084282245	149.236211231033	971.457817344831	601.016095390973	127.995349747749	1401.90384868548	845.91456818879	137.850635647835	1707.2113097504	315.661283959429	127	800.155570732561	648.427644343432	176.197941885124	1091.2987059235
283.344129086228	140.638381261595	564.168844823692	1389.60877022864	226.75375450476	1969.66928567587	680.9236116487	141	1336.99026941334	1037.4915630276	159.660312069993	1468.0914849755	956.509620494931	130	2197.4607013	880.943265223558	148.203483779123	1277.04914427792	621.297904676003	128	1173.08189660185	1001.77398134622	171.856613122982	1397.2506492681	832.594749372837	141	1555.28997785783	1415.34432243107	186.789992671469	2140.59139843057	1259.88039954864	138.858194337653	2426.72990120777	654.424027518766	149.224209336535	972.765394446399	602.407706600968	127.998672777103	1407.07291996105	848.280304499033	137.900042771343	1713.54685158372	315.894415067434	127	801.84352170049	649.502048543571	176.272276819293	1094.52772063301
283.44268643418	140.652585169484	564.662401893925	1390.62241088784	226.829867094563	1971.21876183385	681.129223120735	141	1337.64329507668	1038.37242386796	159.755530911825	1469.37413007766	956.857835529424	130	2199.84615929644	881.180846695121	148.23728636204	1278.42417177091	621.862688022072	128	1175.65056845406	1002.69478482652	171.917770049098	1399.64764230335	833.189258212805	141	1558.27720676402	1415.79862397882	186.824429845448	2143.31308513113	1260.02624421324	138.824945695083	2429.88230233257	654.336799819415	149.207265107301	973.299697777355	603.588014545993	128	1410.70378927312	850.178475735161	137.916987000576	1717.42452512126	316.103274458576	127	802.98858702375	650.415689393137	176.321689505022	1096.71869715092
283.505973556517	140.655749731121	564.974321426337	1391.35390903156	226.941108348882	1972.36641296569	681.199627723879	141	1337.87225279483	1038.94477276341	159.83536637491	1470.00296346227	957.197373494853	130	2201.8856983344	881.382708059794	148.273072285668	1279.50828354259	622.465547335931	127.998672777103	1177.9497257115	1003.53518259431	171.958493500288	1401.73792308023	833.774493013876	141.001327222897	1560.5097117442	1416.18590965385	186.83536637491	2145.32037951602	1260.15298285369	138.799136608139	2431.21215053182	654.176777113052	149.186804107525	973.063312556096	604.549652545175	128	1412.81773770002	851.60078130011	137.900042771343	1718.93939896356	316.286209324545	127	803.58213435431	651.16717734012	176.341604223023	1097.90826114407
283.542824241756	140.649360433534	565.124097462998	1391.82998170505	227.07731784079	1973.12054559909	681.163130758221	141	1337.73944619679	1039.25201695821	159.897336574172	1470.04853415365	957.558111731969	130	2203.64823770713	881.584719123006	148.309931232903	1280.35472009265	623.12411926993	127.995349747749	1179.99781122396	1004.31083527171	171.982272722244	1403.53080195612	834.382811045958	141.004650252251	1561.99628532202	1416.55928696763	186.827110417653	2146.60182772566	1260.3192812013	138.785020410043	2430.78487771398	653.963762395967	149.163833421114	972.078730457032	605.301945503308	128	1413.60227358148	852.573610952929	137.850635647835	1718.44512909314	316.440830154536	127	803.670345462664	651.761596421838	176.332112084733	1098.23544234709
283.56421087578	140.637781446924	565.145965954159	1392.10046373496	227.220869151727	1973.52024372955	681.06412114724	141	1337.34767163292	1039.37312440482	159.941549271054	1469.65307553698	957.965613305761	130	2205.13107475463	881.823379928353	148.345201528092	1280.97636609639	623.851715926961	127.986922974495	1181.78599813585	1005.04395870511	171.994022524852	1405.00488296965	835.040388372845	141.011749802608	1562.7623102178	1416.95350816969	186.807218417328	2147.13889303791	1260.55427410155	138.783693187146	2428.72212473145	653.71057941085	149.139003823654	970.394754672275	605.869542122027	128	1413.36822787942	853.151409483869	137.772882225897	1716.47622361112	316.565027811262	127	803.346214717993	652.214235637745	176.297383264146	1097.91467547227
283.580371790453	140.625461277496	565.08421515075	1392.22809749951	227.352755444948	1973.64141732115	680.952672662566	141	1336.82700538478	1039.40727114384	159.968916079999	1469.0120994501	958.439590707514	130	2206.26670964303	882.13492175187	148.376028327832	1281.35326405675	624.65536846362	127.971570525793	1183.28324993237	1005.76300480219	171.998672777103	1406.12352004715	835.764908381617	141.023779221956	1562.86677196763	1417.38780761192	186.78273655328	2146.94819981857	1260.85920938925	138.794486355888	2425.23174389433	653.424938338633	149.112832013765	968.10429352451	606.286014729038	128	1412.48545063383	853.410895240558	137.673127237637	1713.6394160656	316.655923454407	127	802.732622018208	652.547439121264	176.244642811461	1097.19649082815
283.59783553166	140.61557235419	564.986655775609	1392.27204214882	227.458399994977	1973.59279903141	680.874504648843	141	1336.31779461543	1039.44949113393	159.982272722244	1468.34377188424	958.990983100429	130	2206.94871993021	882.551198248185	148.398181120961	1281.44870292497	625.533812904407	127.947526746202	1184.45070528028	1006.50238310209	172	1406.85876956142	836.562583443128	141.04072345119	1562.41305156229	1417.87191480194	186.75991396519	2146.11823454904	1261.2159572682	138.813195892475	2420.63164985471	653.113099212651	149.087053926439	965.353920915538	606.593872848715	128	1411.33374695423	853.445986725057	137.559229858837	1710.53548869162	316.714263552299	127	801.967044682728	652.793959129432	176.184284051495	1096.33760530978
283.617418729921	140.60809280797	564.900983164517	1392.27865811285	227.531067583516	1973.5210356905	680.858470578895	140.998672777103	1335.95378812336	1039.57558137641	159.982272722244	1467.86168871501	959.629550654787	130	2207.08149882518	883.10253739777	148.409002160837	1281.23944246048	626.483509331975	127.915063851928	1185.26481566303	1007.30673221892	172	1407.22215261496	837.430358923109	141.061156926116	1561.55999323397	1418.41063768999	186.742969735956	2144.83833042751	1261.59568453489	138.834415115697	2415.3651407888	652.781514146838	149.062484149013	962.349044982428	606.840467059898	128	1410.25453612055	853.360670386482	137.440770141163	1707.68508264751	316.743781109217	127	801.186302767999	652.994227672539	176.125659599262	1095.56967616616
283.637315896559	140.602066281219	564.868321129507	1392.28299651517	227.57432350859	1973.59751779361	680.917645077237	140.995349747749	1335.84870061333	1039.83537333025	159.970243302896	1467.74800479473	960.358511197309	130	2206.62815036283	883.808941124777	148.408214733853	1280.73451563527	627.497033163825	127.876872874622	1185.73658175492	1008.22126463628	172	1407.28026922103	838.358144467081	141.082403674188	1560.51665018391	1419.0149994212	186.733329429772	2143.38964391448	1261.97662767261	138.853093652666	2409.98035036012	652.440345900871	149.04072345119	959.340997191409	607.074751529571	128	1409.53118147673	853.263521758536	137.326872762363	1705.50063908978	316.751658195501	127	800.515958824499	653.195338674117	176.076252475754	1095.09047146608
283.655327528656	140.5959152903	564.924381704255	1392.30815855959	227.599953310026	1974.00337595907	681.050506122342	140.988250197392	1336.0830984816	1040.25213062187	159.947526746202	1468.13116515203	961.176292276765	130	2205.65640972674	884.675164624203	148.39629558642	1280.00084055503	628.562658178219	127.837760862727	1185.93235987553	1009.2865458656	172	1407.16643248733	839.334960508929	141.101082211157	1559.52042125879	1419.70406076833	186.730792218287	2142.1102802788	1262.35268383834	138.865936345159	2405.07866534392	652.105317871622	149.023779221956	956.59797447136	607.346030249179	128	1409.37320921601	853.260774095548	137.225790551206	1704.27139987627	316.750706936288	127	800.058640938939	653.448693675007	176.041506499712	1095.05058468766
283.672267020288	140.588991293541	565.092932339724	1392.38265561136	227.624510018283	1974.90072308479	681.247665897099	140.976220778044	1336.69561506378	1040.83042803412	159.915063851928	1469.06814528703	962.069991673638	130	2204.34687836519	885.681978351355	148.377384805626	1279.15610464152	629.661433134748	127.803698947011	1185.9713332367	1010.51929002991	172	1407.061470929	840.347142058778	141.113897378801	1558.80256644556	1420.4971292293	186.733332904541	2141.33024027367	1262.73473712694	138.872222622371	2401.22665353444	651.793366180563	149.011749802608	954.364092458385	607.6945861814	128	1409.92303178434	853.441471893311	137.144714099915	1704.17248974649	316.754924686251	127.001327222897	799.892044782052	653.799737836683	176.023704752903	1095.55500775601
283.692979904439	140.581920998081	565.381647049179	1392.53613761288	227.665495327334	1976.38661953253	681.494900929778	140.95927654881	1337.66596392981	1041.55625065532	159.876872874622	1470.52521464994	963.014681876107	130	2202.97561547592	886.782746982099	148.354957202931	1278.35512942656	630.767818300115	127.78045807117	1186.01289886079	1011.90516015816	172	1407.1598102879	841.383379436229	141.118459717673	1558.55558688593	1421.41269645973	186.739196273865	2141.31043084599	1263.15439778287	138.87381134399	2398.88130464742	651.526170387495	149.004650252251	952.824442968457	608.153610015815	128	1411.2599439254	853.874526296178	137.086880203152	1705.27761976466	316.780645459979	127.004650252251	800.065266980184	654.287357361644	176.022377530006	1096.66179807751
283.725068734914	140.578039657082	565.780812615373	1392.8015162988	227.735713617766	1978.46780201312	681.77665834292	140.938843073884	1338.91712660805	1042.39807855546	159.837760862727	1472.38414143811	963.967240566842	130	2201.86919840504	887.898952665968	148.333801496723	1277.7593379052	631.843773214999	127.772205242399	1186.23163024729	1013.38324704172	172	1407.63027452565	842.429468733465	141.113897378801	1558.89544320208	1422.45182572988	186.747476627486	2142.17958863447	1263.65212502437	138.874352818591	2398.31265640802	651.322883889971	149.001327222897	952.077059571385	608.745148842345	128	1413.40454292889	854.605361803842	137.05325630232	1707.57115285939	316.844883575489	127.011749802608	800.598965112842	654.939259547799	176.038183470358	1098.38284726141
283.778088200914	140.577920813658	566.264102849106	1393.2091141868	227.841353360622	1981.04271784908	682.077203734967	140.917596325812	1340.32635134078	1043.31115920157	159.803698947011	1474.45957041911	964.875716275351	130	2201.33800880304	888.938165051621	148.317235930948	1277.50713587009	632.846366663084	127.78045807117	1186.78433491348	1014.8591110728	172	1408.57961307341	843.468738438082	141.101082211157	1559.85834345382	1423.59467811249	186.759652466467	2143.92870442968	1264.26952879183	138.876890030076	2399.59311066976	651.201179629012	149	952.133550724224	609.478921977318	128	1416.32025036985	855.653540800797	137.041506499712	1710.95859819707	316.962557337351	127.023779221956	801.484640886637	655.770875040352	176.070480148294	1100.68331590756
283.855902080952	140.582484761646	566.793911533913	1393.7702323088	227.979820516848	1983.91823744534	682.377085696911	140.898917788843	1341.7507975739	1044.23476175119	159.78045807117	1476.54248974965	965.6849303847	130	2201.61967777963	889.807256195475	148.30817706994	1277.68755899085	633.732491528386	127.803698947011	1187.78222523842	1016.21773788301	172	1410.03276525654	844.483463674574	141.082403674188	1561.40639103083	1424.8042269131	186.777379385084	2146.42745042021	1265.04372393222	138.884775398303	2402.61567926695	651.17447863428	149	952.933028727124	610.353392498036	128	1419.92233814161	857.015804260249	137.048028149234	1715.2844189569	317.143467145506	127.042050674087	802.690519112829	656.781287854092	176.119607655062	1103.48964215516
283.957275042189	140.589300165178	567.328976222992	1394.47025620887	228.142588710868	1986.84263463443	682.655853737517	140.8861026212	1343.05568526114	1045.10575903903	159.772205242399	1478.44121046484	966.349905910125	130	2202.84578863169	890.436070608583	148.308959343467	1278.34086451525	634.468378045652	127.837760862727	1189.2807927681	1017.3513081838	172	1411.94277635911	845.451960321455	141.061156926116	1563.4521411569	1426.02538767728	186.803698947011	2149.47355146548	1265.99386644555	138.898917788843	2407.14389791158	651.251433752126	149	954.368814089297	611.355706717365	128	1424.07393365048	858.667452029848	137.067134401264	1720.33247671588	317.39025045301	127.065807178367	804.157927880597	657.956175877027	176.18373987712	1106.69112815657
284.074513568361	140.594185720167	567.834211581889	1395.26961800841	228.316437764798	1989.56358953475	682.898308601551	140.882867505224	1344.15146974943	1045.87408232236	159.78045807117	1480.03122916203	966.845493603934	130	2205.01532272926	890.796425171483	148.319661539918	1279.45407175215	635.038292342061	127.876872874622	1191.27331111931	1018.18636164241	172	1414.20683893906	846.353673241933	141.042050674087	1565.88015965146	1427.20046339236	186.840839548813	2152.84035083817	1267.12044217558	138.917596325812	2412.85722316974	651.434214957553	149	956.305036008485	612.460171575339	128	1428.59582834133	860.559943911425	137.094153476796	1725.83710522024	317.695252024438	127.094153476796	805.809200854438	659.264408868465	176.261065583996	1110.14895954237
284.195873337928	140.592569543271	568.287107317774	1396.10752862056	228.487627635333	1991.87842515579	683.094144015858	140.89075287345	1345.00838243475	1046.50865852621	159.802371724114	1481.27288360211	967.174591326182	130	2208.00421203453	890.911146361365	148.339600016629	1280.97466401631	635.452575721962	127.915063851928	1193.69746709095	1018.70465725458	172	1416.6921070231	847.17066341429	141.029756697104	1568.571814248	1428.273395323	186.89075287345	2156.31576768738	1268.40125701717	138.938843073884	2419.38371413039	651.714669110092	149	958.586736660535	613.633024704916	128	1433.27780083071	862.623629990568	137.124861433113	1731.4909308521	318.042828160387	127.124861433113	807.551411738701	660.660932988461	176.346616664367	1113.70653372543
284.307788688402	140.582589578101	568.679243350167	1396.91278953418	228.64469776343	1993.66960241264	683.241183739795	140.910667591451	1345.65665571278	1047.00409806634	159.833110610476	1482.20791718984	967.365588555458	130	2211.58742015495	890.844427702017	148.363988608662	1282.81424633789	635.744250511292	127.947526746202	1196.44997757205	1018.94241667214	172	1419.26146238355	847.889225872716	141.028149857467	1571.40386355313	1429.19517789949	186.952695547862	2159.71032014058	1269.7887846972	138.95927654881	2426.30968096104	652.072921046463	149	961.037809766159	614.830103959708	128	1437.89801688406	864.763953865734	137.15462082999	1736.96601333167	318.409803455472	127.15462082999	809.284847313354	662.087561938813	176.433041202827	1117.20276505199
284.401011723778	140.565614418822	569.018074724329	1397.62480466433	228.780261392994	1994.92554821251	683.348142443551	140.941375547768	1346.1779336419	1047.3818025334	159.863795849117	1482.93895050418	967.469151619964	130	2215.48457399647	890.691680403758	148.387775696705	1284.86367586219	635.966237556252	127.971570525793	1199.40522134647	1018.98446391846	172	1421.79194826031	848.50237038598	141.040179276815	1574.25323521236	1429.93016426387	187.023779221956	2162.86045324195	1271.21558119863	138.976220778044	2433.18871324557	652.476368072559	149	963.458029784804	616.003594739258	128	1442.24058305186	866.869826486999	137.179616643789	1741.93781430741	318.770624561579	127.179616643789	810.909870554193	663.479267424296	176.512528932499	1120.4831678389
284.468145419619	140.547311070543	569.320277699985	1398.19213986775	228.891359099024	1995.7242518808	683.428055956067	140.979566525074	1346.67632499376	1047.67664044031	159.886634377721	1483.59339331902	967.545648921805	130	2219.40187339382	890.552334064384	148.40356616029	1286.99491842319	636.17949042426	127.986922974495	1202.43114971725	1018.9395453316	172	1424.18506510849	849.00846307669	141.065829896043	1576.98734057516	1430.4513317973	187.099777705936	2165.61184223976	1272.59295026321	138.988250197392	2439.54678290847	652.877812634235	149	965.627077860228	617.103392189528	128	1446.11502337231	868.824923044465	137.196301052989	1746.11790027921	319.101671281276	127.196301052989	812.336757794577	664.770287960243	176.576865527249	1123.41285851194
284.509837990898	140.534918880359	569.606700907786	1398.59079207749	228.977599752318	1996.19886441451	683.499139950306	141.020433474926	1347.24806244102	1047.9311378993	159.895053492404	1484.28209735423	967.653824830651	130	2223.06386178837	890.509303144885	148.406346036355	1289.06339008162	636.441906771325	127.995349747749	1205.39701836312	1018.91479245382	172	1426.36055394992	849.409945582787	141.101880377306	1579.46892419677	1430.73982350351	187.17372708202	2167.82508693416	1273.81746321553	138.995349747749	2444.92950081603	653.220655945581	148.998672777103	967.325980331642	618.084361008241	128	1449.38080371696	870.519100953688	137.202164422313	1749.29820396375	319.385026260704	127.20349164521	813.495807406369	665.900940081385	176.620132793178	1125.8920181965
284.530442351395	140.537049007006	569.893825366752	1398.81304187901	229.040897174477	1996.49476898048	683.578648172259	141.058624452232	1347.95279267777	1048.18281738116	159.885307154824	1485.0718447968	967.83849033312	130	2226.24535200738	890.609095325476	148.391628178715	1290.91522003636	636.797709568332	127.998672777103	1208.18273147859	1018.99169171318	172	1428.25479819416	849.716095846652	141.143560600305	1581.56338224482	1430.79256194189	187.238241096022	2169.37707653939	1274.78656711892	138.998672777103	2448.94839562017	653.447824581631	148.994022524852	968.36615122179	618.911553060925	128	1451.95594332456	871.86864939272	137.196301052989	1751.3751049113	319.60974954699	127.20095130524	814.342849212049	666.827112507373	176.639353151031	1127.86190756045
284.538790821689	140.558264825032	570.186878438635	1398.87371122527	229.082027710504	1996.71575436713	683.680862893663	141.089332408549	1348.78904545448	1048.46165729175	159.857818373969	1485.95986966116	968.117396855966	130	2228.77951900227	890.850355696707	148.358545752483	1292.39240068161	637.264747491173	128	1210.68178022972	1019.20645609943	172	1429.80665051101	849.943063286407	141.183485885345	1583.16298809944	1430.62184420099	187.28430623864	2170.1872042092	1275.41577741381	138.998672777103	2451.3528980496	653.511729325409	148.982272722244	968.624880901834	619.566327968254	128	1453.83660351292	872.828798825873	137.179616643789	1752.37693510112	319.773600123558	127.191366446397	814.868468850136	667.525140418805	176.636532848037	1129.31539565225
284.543057603307	140.600753514003	570.477906590647	1398.79356833995	229.101942428505	1996.90294582855	683.809459933616	141.10924712655	1349.69358771563	1048.77564132013	159.815383332721	1486.87403673177	968.47870952976	130	2230.56308562035	891.182954508324	148.309133066754	1293.34598369223	637.834128931065	128	1212.80371986956	1019.54423131275	172	1430.95363038865	850.114403717872	141.214979589957	1584.20475006384	1430.26149643605	187.306761296612	2170.23428824701	1275.65728134142	138.995349747749	2452.07606727263	653.386039501523	148.959820723185	968.07113751612	620.05208911722	128	1455.09415869958	873.406561077348	137.15462082999	1752.45945245817	319.883642716484	127.178400051946	815.099271147936	667.999700898336	176.61837202696	1130.29512740227
284.549669396359	140.660566061768	570.747957104379	1398.60283453402	229.09940521702	1997.03506326939	683.957489782471	141.117132494776	1350.5564578613	1049.11692008748	159.760865224402	1487.69848289772	968.884383569035	130	2231.5676485362	891.52276729319	148.249293063712	1293.66156667341	638.473196401688	128	1214.48772852317	1019.95020660945	172	1431.64373388965	850.263511170974	141.233684319371	1584.69699512992	1429.76962887747	187.301683745157	2169.58553818998	1275.51700500442	138.988250197392	2451.28068797859	653.074371053596	148.923747524246	966.784772212995	620.394036541857	128	1455.87246933656	873.660311031228	137.124861433113	1751.88594194731	319.952516025141	127.165584884303	815.095833499709	668.281002287694	176.594758883401	1130.89299818697
284.56176233272	140.731577966583	570.97121124399	1398.33459877164	229.073718101986	1997.03656485129	684.109229971095	141.113897378801	1351.24736683491	1049.46489941583	159.698228120269	1488.2989049439	969.275555894664	130	2231.83688375479	891.767725751696	148.184284051494	1293.28145076118	639.13087031186	128	1215.70998840144	1020.34173508837	172	1431.84883748756	850.429486940123	141.238334571621	1584.72226963724	1429.22638203197	187.269734800634	2168.39357523643	1275.05964822114	138.976220778044	2449.33642627626	652.61256228893	148.874340400738	964.944267972183	620.637804957397	127.998672777103	1456.36839600874	873.6931656386	137.094153476796	1750.99075210843	319.997345554206	127.155310402913	814.944174020761	668.424736098235	176.575100856948	1131.23690993995
284.577589224345	140.802638923	571.124235752312	1398.02014118583	229.023502512506	1996.82105619758	684.241344395718	141.09975498826	1351.65543690407	1049.79349601461	159.627491142484	1488.57006865769	969.595905689362	130	2231.49594549887	891.831231674968	148.121009347012	1292.23279820812	639.755148446864	128	1216.49904818088	1020.64162618716	172	1431.59296785142	850.651114788869	141.231379644816	1584.43290858895	1428.72247581361	187.214979589957	2166.89279709982	1274.39825534887	138.95927654881	2446.77799123561	652.061589428404	148.814388725609	962.804680578588	620.841637714963	127.995349747749	1456.80714578512	873.634171615833	137.065807178367	1750.12828678968	320.036856247461	127.148210852555	814.743050004444	668.500622562059	176.567756963323	1131.47586171832
284.594072389339	140.865039896236	571.192172020224	1397.69534524766	228.952093822675	1996.3185699226	684.334253759752	141.077753421938	1351.71854983803	1050.08770613407	159.550017267713	1488.46699662664	969.799268972512	130	2230.73165264447	891.658236876949	148.064502673146	1290.63263580243	640.30385238547	128	1216.93220763824	1020.79685387088	172	1430.96158773586	850.960519072425	141.219014909909	1584.02609869136	1428.35009254194	187.146108181185	2165.36496858755	1273.67793564192	138.938843073884	2444.2120404984	651.497545124542	148.749379713391	960.653690858062	621.064427414835	127.988250197392	1457.41449160231	873.614556424229	137.042050674087	1749.62700496743	320.086880203152	127.143132885243	814.591202216659	668.581717230639	176.576188543751	1131.76327255966
284.608097545571	140.910670498741	571.172923116435	1397.3891855722	228.863795849117	1995.49390375215	684.3778304654	141.049407123508	1351.4351908642	1050.34791797546	159.46507638204	1488.01417894277	969.864044199251	130	2229.77548983027	891.242162543386	148.016400054859	1288.68292213688	640.751574374579	128	1217.13226414033	1020.79379191632	172	1430.10325300932	851.377296647983	141.208063273451	1583.70418067982	1428.18446249585	187.072906728724	2164.08877357714	1273.04570130232	138.917596325812	2442.21051985174	650.996176924531	148.686216680996	958.762230996826	621.361485900458	127.976220778044	1458.38282309663	873.749436451876	137.023779221956	1749.73840544911	320.161114154774	127.137676600757	814.570860544931	668.736164508913	176.600730796327	1132.23375266126
284.618631846995	140.934714278332	571.076559274202	1397.13081409248	228.766323942625	1994.35036685122	684.372459572239	141.016944229234	1350.86295980648	1050.58981493031	159.373211499608	1487.29676429708	969.795914539559	130	2228.86456738655	890.624329512058	147.977003826566	1286.63682453812	641.095155993865	128	1217.24383937083	1020.6587279919	172	1429.20921248021	851.899616542064	141.203760754612	1583.63763392181	1428.26951438499	187.0054484184	2163.2912260328	1272.62475271927	138.898917788843	2441.21142460288	650.618066980333	148.631031667805	957.341372483619	621.770197532411	127.95927654881	1459.84999797199	874.115351228644	137.011749802608	1750.61019306355	320.267297050918	127.130209520281	814.742241667027	669.013453503511	176.638114062709	1132.98767630333
284.624797897018	140.935571795907	570.92207053011	1396.93371708324	228.667945228865	1992.91621829371	684.32669363555	140.983055770766	1350.09686945764	1050.83477563319	159.276919564595	1486.43337384026	969.626962874995	130	2228.20285359442	889.886641618631	147.944820549031	1284.75521080473	641.352205333195	128	1217.40775294699	1020.45111204841	172	1428.47499533396	852.510031831358	141.208063273451	1583.93485294092	1428.6151433244	186.951932517242	2163.11009227889	1272.49785347254	138.8861026212	2441.45697759223	650.402408892271	148.58924285158	956.516078336384	622.311106887514	127.938843073884	1461.87632767989	874.74849694767	137.004650252251	1752.26837789474	320.409102713265	127.118547631051	815.130359513169	669.444333042681	176.682450459814	1134.07457487768
284.62748633531	140.916465543877	570.734306881429	1396.79172420091	228.57564706915	1991.22900529331	684.252597841567	140.950592876492	1349.24782059479	1051.09877707761	159.180779688174	1485.54805214519	969.405139379004	130	2227.93738770441	889.131991173078	147.918923548709	1283.26230591452	641.552984567697	128	1217.7408371831	1020.24247377524	172	1428.0685532215	853.171995636733	141.219014909909	1584.62332038808	1429.19178848253	186.918396529788	2163.56757814274	1272.69401237644	138.881540282327	2442.96806626675	650.359371873068	148.564680315064	956.3144876879	622.983276228452	127.917596325812	1464.43660640231	875.644020679247	137.002654445794	1754.62088740506	320.584157018181	127.102409434054	815.725301007029	670.035427611017	176.728662022067	1135.48790209098
284.628906278759	140.879412855454	570.541678629034	1396.67561875305	228.49243492899	1989.32704763236	684.1617196253	140.922246578062	1348.42762036875	1051.38783723007	159.09091362322	1484.7515230175	969.186151135114	130.001327222897	2228.13260583256	888.467700910989	147.898917788843	1282.30662568296	641.733242809804	128	1218.31287265025	1020.1029791053	172.001327222897	1428.09302297502	853.840436711595	141.231379644816	1585.65941451298	1429.93981066957	186.907152928309	2164.58294528925	1273.19265191308	138.8861026212	2445.58211513235	650.475535316124	148.557728912653	956.684216155029	623.767247180345	127.898917788843	1467.41955291451	876.765180004497	137.004650252251	1757.50070859013	320.785020410043	127.082403674188	816.479309834412	670.773740505128	176.771930966684	1137.1609919386
284.628906278759	140.829764863447	570.372078255113	1396.52869245122	228.417441351944	1987.23027956813	684.06354911814	140.90024501174	1347.7362758223	1051.691128174	159.013875191655	1484.13311305489	969.019774585939	130.004650252251	2228.78416245155	888.020831342593	147.887429844096	1282.06375820902	641.918796528851	128	1219.11645773124	1020.08660796739	172.004650252251	1428.58890786175	854.471018484445	141.238334571621	1586.9361594484	1430.83486742388	186.915317843702	2166.07023603136	1273.94564908382	138.898917788843	2449.01740853735	650.764557357341	148.567221050943	957.592085561245	624.673313959593	127.884775398303	1470.75220675933	878.142660282306	137.011749802608	1760.93695424483	321.025217235041	127.061156926116	817.406366609365	671.660243971021	176.809850145445	1139.05969462749
284.628813558207	140.772472441285	570.250011153745	1396.26208956181	228.343874305195	1984.93046341116	683.970155830708	140.8861026212	1347.2623151334	1051.99445336486	158.955255546596	1483.78858820778	968.962718048625	130.011749802608	2229.87689505342	887.96506318586	147.886190534578	1282.82040920722	642.114661849069	128	1220.06612331044	1020.24595171853	172.010422579711	1429.57881758345	855.02014375127	141.23368431937	1588.30873098458	1431.9353208567	186.93539807262	2168.04174648787	1274.89564251724	138.917596325812	2452.95599133113	651.311695914082	148.58898655594	959.10618532208	625.775839126615	127.876890030076	1474.48712217972	879.944390373409	137.023779221956	1765.34575519467	321.356423298596	127.042050674087	818.647166184497	672.742334263826	176.841361005512	1141.2532729649
284.629448149269	140.714200460066	570.196691759193	1395.76644802071	228.259886287849	1982.39535693716	683.90151203453	140.881540282327	1347.08926805161	1052.28856253016	158.918396529788	1483.84068588976	969.083364860652	130.025106444853	2231.42585636596	888.547059195955	147.899179646705	1285.06102229824	642.297113335368	128	1220.98816681064	1020.64677144268	172.016474523912	1431.10905077799	855.457002510799	141.214979589957	1589.61728911992	1433.43580623592	186.95586177217	2170.70615604627	1276.00870236001	138.938843073884	2457.12435691765	652.319208153495	148.618204082308	961.482016948414	627.249818695467	127.874352818591	1478.92244017277	882.538405534828	137.04072345119	1771.71579560339	321.891460466245	127.029756697104	820.567347410942	674.137101731555	176.868375343444	1143.98952399334
284.633036095397	140.661893284665	570.229014988712	1394.91469875262	228.147809026692	1979.5649062753	683.885593552629	140.8861026212	1347.2912625486	1052.56947565545	158.902502676058	1484.44572368426	969.484191384542	130.045373703441	2233.55631698399	890.110956990378	147.92734726305	1289.53584480195	642.414322836716	128	1221.64677863072	1021.39916400831	172.01569147539	1433.32001464007	855.765638801398	141.183485885345	1590.72115029608	1435.69143309986	186.959872474562	2174.52240256492	1277.2975304685	138.95927654881	2461.36207979199	654.136085336238	148.650666976582	965.19820483819	629.390409663002	127.875138566887	1484.65991671833	886.515903927368	137.061156926116	1781.62385015803	322.815550034296	127.028149857467	823.799904021975	676.043299637557	176.892940313696	1147.72758309894
284.643831717822	140.62278127277	570.360992891277	1393.58124571168	227.986375700459	1976.37905038765	683.95724672762	140.898917788843	1347.92729448508	1052.84209499353	158.904895263991	1485.79043063542	970.315432451032	130.072906728724	2236.53207398509	893.062576634239	147.97006957961	1297.13579218496	642.399948145235	128	1221.79079570187	1022.67335054514	171.997272896398	1436.47359782265	855.945790567408	141.144887823202	1591.51127263178	1439.15757408102	186.930237749368	2180.12669614773	1278.82161186078	138.976220778044	2465.63638111486	657.211094259076	148.683684207112	970.878462623824	632.567149767026	127.876872874622	1492.53122876878	892.583919378571	137.082403674188	1796.93774629119	324.363240936059	127.040179276815	829.178735516097	678.703840644935	176.916269102915	1153.06580878067
284.67025039604	140.601508332253	570.607912373603	1391.67026940731	227.753478357986	1972.80778039243	684.148745778331	140.917596325812	1349.0224942796	1053.10755672586	158.918923548709	1488.03812058572	971.767491390329	130.106182896144	2240.72505129729	897.786020160944	148.023779221956	1308.63435410127	642.19560744133	128	1221.21982354245	1024.69593918672	171.946917420967	1440.920706064	856.017080917106	141.106530629557	1591.94746284172	1444.26971449376	186.851965778021	2188.1449657636	1280.68202038756	138.988250197392	2470.04182467331	661.986750516709	148.715055939814	979.108556152205	637.129476613923	127.877686147768	1503.38124937156	901.35455454188	137.101082211157	1819.20700817205	326.764289783035	127.065829896043	837.550552910758	682.326912915727	176.938843073884	1160.54910869076
284.723086372782	140.600753514003	570.985676909054	1389.1476962561	227.430501029623	1968.89183786321	684.476877923587	140.938843073884	1350.5475330313	1053.35000087234	158.938843073884	1491.25330146865	974.042192129682	130.141805662347	2246.53924576733	904.518863038245	148.082403674188	1324.38998605117	641.776678235899	128	1219.85149652379	1027.71252060522	171.851686161281	1447.01929129774	856.0213364469	141.076252475754	1592.06364001457	1451.28744559721	186.716290476369	2198.94175797735	1282.98867780892	138.995349747749	2474.73768102611	668.76402702437	148.743402238244	990.211002194157	643.28815990179	127.876872874622	1517.78498787164	913.10984758552	137.1138973788	1849.01431836317	330.176156527258	127.101880377306	849.52701942104	686.99467067299	176.95927654881	1170.44498728925
284.815930606757	140.617322554547	571.50932733318	1386.07394186168	227.007865251053	1964.76467257119	684.934604424999	140.95927654881	1352.40218073617	1053.52508603861	158.95927654881	1495.33011747982	977.29741846539	130.175054304917	2254.28750799553	913.243489668955	148.138459915317	1344.10996599792	641.166595554317	128	1217.75799942968	1031.91787228865	171.703996499386	1455.01687499913	856.016252938168	141.05930824652	1591.97006777102	1460.16986894721	186.523745730017	2212.4327462122	1285.82408481652	138.998672777103	2479.8832173991	677.581795755587	148.765167743241	1004.06510780305	651.018065343094	127.87381134399	1535.80586858785	927.620767096553	137.117132494776	1885.51887717182	334.625437985068	127.143560600305	865.268859201433	692.596285839453	176.976220778044	1182.5719648184
284.961230114454	140.645845700819	572.189581656656	1382.61389719115	226.490499925163	1960.6648371221	685.48586653263	140.976220778044	1354.41884915606	1053.55909981925	158.976220778044	1499.96117235203	981.600282621561	130.200863391861	2264.08021975867	923.627300446094	148.184551250381	1366.76225104916	640.441730032485	128	1215.17035760736	1037.39222572129	171.504639477988	1464.94420165645	856.070380075076	141.057123506049	1591.82062581891	1470.51904966945	186.285097549158	2227.96509110112	1289.21326422181	139	2485.53691767269	688.154746784901	148.775531109469	1020.01567966129	660.007820253874	127.869702566341	1556.8491136227	944.086451868779	137.10924712655	1926.31791169738	339.972475007338	127.183485885345	884.348938638915	698.805477113588	176.988250197392	1196.22543728446
285.167769861988	140.678318964489	573.02004758426	1379.03063625191	225.897586617604	1956.88421623274	686.067941808941	140.988250197392	1356.36466419694	1053.35824614335	158.988250197392	1504.63686206022	986.88685884602	130.214979589957	2275.7460807621	935.033123445923	148.214891676579	1390.66818556602	639.717388706746	128	1212.4419502836	1044.04489668907	171.263850801086	1476.54147825015	856.25393987782	141.067134401264	1591.77396333493	1481.610195247	186.018678536968	2244.3547941922	1293.10763401298	139	2491.59032180378	699.886506865043	148.768343645734	1036.91472285456	669.682268588723	127.865140227468	1579.6711397496	961.217338757161	137.088005185652	1967.72743255889	345.917564986586	127.214979589957	905.751673293884	705.116053363946	176.995349747749	1210.24182990633
285.436059737598	140.706123788317	573.974644760284	1375.64084717582	225.261834176837	1953.71414507459	686.596263480851	140.995349747749	1357.97053773846	1052.81603943998	158.995349747749	1508.70517811291	992.946347566591	130.214979589957	2288.81070642935	946.603988976956	148.225140311807	1413.77171100104	639.124079847304	128	1209.97400996178	1051.59003284215	171	1489.24705507216	856.620017625007	141.083730897085	1591.94346085185	1492.50077474671	185.748964366558	2260.04377648887	1297.37545858563	139	2497.7242906623	711.959122215674	148.739130856967	1053.29627518892	679.285310322382	127.860996176346	1602.54170588859	977.456095116413	137.053974199982	2005.41623252619	352.04474312615	127.23368431937	928.01116375303	710.927912686492	176.998672777103	1223.18347683418
285.75747431559	140.722661829243	575.001985693369	1372.75921072002	224.623009072099	1951.36826695727	686.978112960264	140.998672777103	1358.96297591352	1051.83691877847	158.998672777103	1511.47597287793	999.443982003659	130.200863391861	2302.54024465323	957.414761745608	148.214891676579	1434.01411599211	638.776925074936	128	1208.12550795616	1059.57189360531	170.736149198914	1502.25419338493	857.196128755207	141.101082211157	1592.35275818614	1502.20673574447	185.498595637988	2273.36640663114	1301.82239928296	139	2503.43257390951	723.485852251413	148.685828299458	1067.64183196954	688.018838015563	127.858194337653	1623.54595154328	991.277294278669	137.007356449421	2035.26342456807	357.8962624398	127.237007348724	949.46204291765	715.662369631826	176.998672777103	1233.61740022463
286.113630179914	140.724674857188	576.027956935262	1370.63215741946	224.022945670626	1949.90733775491	687.127479157885	141.001327222897	1359.10007046002	1050.35528881897	159	1512.33993669517	1005.96478187861	130.175054304917	2316.03275806372	966.637242583231	148.184551250381	1449.72020709157	638.745851199351	128	1207.12051898432	1067.42324732867	170.494033299115	1514.61961302376	857.968785142837	141.113897378801	1592.90717258278	1509.88296188797	185.285463686593	2282.83549192207	1306.2153684907	139	2508.07211542535	733.674254858061	148.610643088624	1078.66778644626	695.188563399454	127.856439399695	1640.92389174135	1001.49128278694	136.94980982797	2054.19037626803	363.05670485261	127.226729392565	968.542745972614	718.877314027679	176.994022524852	1240.39244259494
286.480345654965	140.709719193501	576.961130690917	1369.38412527133	223.49292073447	1949.20113990392	686.979197971334	141.004650252251	1358.19840419208	1048.3502318349	159	1510.87803232171	1012.08722899374	130.141805662347	2328.34726678931	973.696239754974	148.138459915317	1459.89326714179	639.037782008437	128	1206.98515524152	1074.56223281558	170.290026025466	1525.40587843063	858.880027802334	141.118459717673	1593.4021818176	1514.97779328163	185.11777139332	2287.41464367723	1310.31745528079	139	2510.98627973362	741.971878467006	148.518506407647	1085.5758740363	700.331933505795	127.856439399695	1653.37978911374	1007.47357596443	136.882924818822	2060.76048129518	367.228141738039	127.207265107301	984.065125914112	720.354299062553	176.982272722244	1242.86156736327
286.830983321546	140.68154844867	577.709269780578	1368.99426104639	223.051870976567	1948.94149316784	686.49716419779	141.011749802608	1356.15681032264	1045.85435068587	159	1506.93984077048	1017.44871509888	130.106182896144	2338.63368616234	978.355138644234	148.082403674188	1464.3518085357	639.591809253193	128	1207.52703099666	1080.48701897572	170.130586560963	1533.82026132185	859.830396338439	141.113897378801	1593.55076656327	1517.31449693993	184.992897542353	2286.67597798492	1313.91858373569	139	2511.61523258816	748.1488419448	148.416990919207	1088.18365358495	703.28425267238	127.858194337653	1660.27612379913	1009.25813046549	136.80933138852	2055.39322770263	370.273938954204	127.184284051494	995.397279109564	720.127800708233	176.958493500288	1240.97977976963
287.141166763803	140.64549803698	578.190269305456	1369.30395328092	222.700178986139	1948.69296835032	685.682414581283	141.023779221956	1352.95830660442	1042.9514668362	159	1500.65334214992	1021.8028121039	130.072906728724	2346.25033979838	980.731492928028	148.023779221956	1463.67546602491	640.2891687127	128	1208.37261684996	1084.8547242901	170.011576079321	1539.32589458774	860.694973635028	141.101082211157	1593.03989276209	1517.08975835137	184.899250404628	2280.82878106946	1316.86458641943	139	2509.60653061428	752.302942866273	148.315122959755	1086.9194462565	704.18070937519	127.862323399243	1661.67696689701	1007.47435892491	136.732096723508	2040.13935091289	372.224571261731	127.164364526319	1002.50482844893	718.459020088749	176.919097271995	1235.2654717629
287.393709933023	140.608467996659	578.347712742306	1370.05396018796	222.422273214369	1947.98339702607	684.56449285537	141.04072345119	1348.66289077148	1039.75891651248	159	1492.38627999229	1025.04729758226	130.045373703441	2350.83885128624	981.226464266632	147.97006957961	1458.98987470482	640.981983910625	128	1209.04722721828	1087.52676526782	169.9204971527	1541.70021007817	861.342355933249	141.082403674188	1591.6041249039	1514.79164977859	184.821815395563	2270.63421184375	1319.07037504344	139	2504.89703151618	754.789352804646	148.221140298956	1082.68389194936	703.388403906162	127.869790479719	1658.23981303522	1003.15745553566	136.656125694805	2018.11328354741	373.245589031865	127.152883822482	1005.86630031022	715.76008987241	176.86259059813	1226.63948983125
287.578688344666	140.578162387579	578.16094000417	1370.94896165769	222.191385452944	1946.40864759984	683.19678542814	141.061156926116	1343.39461467296	1036.41455221573	159	1482.66908434633	1027.22084508428	130.025106444853	2352.3510919359	980.401776498508	147.92734726305	1451.65701356997	641.524638258198	128	1209.08571731512	1088.57064134866	169.840921647592	1541.03871807776	861.665424948202	141.061156926116	1589.08091198841	1511.07148383931	184.746768170796	2257.21061234203	1320.52824156514	139	2497.71653151134	756.101393359875	148.142059654121	1076.6173666166	701.400585861044	127.881452368949	1651.0046454309	997.483434295651	136.587921190905	1992.74492634179	373.579304661353	127.15301129058	1006.28237990985	712.493713265314	176.790609503653	1216.1982204092
287.695921170674	140.560297123757	577.646919414855	1371.72386616556	221.978174008057	1943.7257405271	681.644876386553	141.082403674188	1337.32809908711	1033.05614004335	159	1472.09937939178	1028.46854798524	130.011749802608	2351.02286435284	978.836134202536	147.899179646705	1442.96287403299	641.804544998759	128	1208.13735235414	1088.2217719649	169.759062147779	1537.70619243145	861.598770300606	141.04072345119	1585.4605822276	1506.59314514115	184.668402516334	2241.82114661008	1321.29122803858	139	2488.56479502672	756.730393005365	148.082229950902	1069.84942615011	698.718192493351	127.897590565946	1641.14510140004	991.509793345886	136.535815259709	1967.06611172586	373.4793045276	127.165826458224	1004.65249651254	709.075012795471	176.708656262201	1204.98499289168
287.752803808223	140.557461851709	576.859059887643	1372.20589103259	221.759591204526	1939.91313272629	679.980246587432	141.101082211157	1330.68056239717	1029.81417200775	159	1461.25948206939	1028.99372545623	130.004650252251	2347.31120250243	977.001227610357	147.886190534578	1433.88821113703	641.766589006681	128	1206.04291781291	1086.82112342857	169.668682133073	1532.25558954843	861.137557882933	141.023779221956	1580.89410828383	1501.91924263582	184.58898655594	2225.66882858587	1321.46155964488	139	2478.11537402912	757.057482892951	148.041506499712	1063.28377310427	695.752931612806	127.917596325812	1629.75647768102	985.982414030681	136.506315682866	1943.23843889216	373.153172872682	127.188939865967	1001.7764894115	705.802685154539	176.625059754879	1193.81863004962
287.762366170586	140.569874741689	575.877265094161	1372.35227410537	221.526972250192	1935.17219812665	678.278656479442	141.113897378801	1323.71129708685	1026.80735603265	159	1450.66594553064	1029.00752043607	130.001327222897	2341.82834758866	975.22146658004	147.887429844096	1425.11724843911	641.413490097714	128	1202.8487674024	1084.74696686781	169.572306884342	1525.3571245878	860.338665716528	141.011749802608	1575.66356913138	1497.48185972382	184.518349839815	2209.8266320654	1321.17008489589	139	2467.11358028929	757.326628907183	148.017727277756	1057.53886459595	692.811042961147	127.938843073884	1617.79838279003	981.331457714792	136.504321555097	1922.54610276599	372.751891369484	127.217104979004	998.299040013797	702.859116547026	176.548627993617	1183.27782954168
287.741476434663	140.594870555488	574.792412580276	1372.23392020827	221.287052293778	1929.86422793062	676.618281954269	141.118459717673	1316.71071288487	1024.14715135201	159	1440.7601083041	1028.71002665933	130	2335.28548258958	973.68288228901	147.898917788843	1417.08332496121	640.803558565441	128	1198.79142209108	1082.37372004147	169.480949417978	1517.74006449168	859.308087923157	141.004650252251	1570.13438111044	1493.59028558648	184.468932416484	2195.1992599316	1320.56305096044	139	2456.26908320471	757.654417204408	148.005977475148	1052.93946419055	690.094236206869	127.95927654881	1606.06491574243	977.715250046897	136.530618399348	1905.53822730773	372.365927056679	127.244642811461	994.686476762995	700.33405199405	176.488160640423	1173.73638788816
287.708918120063	140.628901471585	573.695334992699	1372.0127714104	221.061359166514	1924.43821249355	675.081701748912	141.113897378801	1309.99101738983	1021.94231400892	159.001327222897	1431.90759201041	1028.26969911221	130	2328.4058546974	972.466561241671	147.917596325812	1410.05012904984	640.032975644249	128	1194.22937583223	1080.03154192874	169.409102713265	1510.11453570831	858.181030990806	141.001327222897	1564.6951278949	1490.4401667082	184.451581102413	2182.51062366795	1319.7783530893	139	2446.17892349597	758.063031423049	148.001327222897	1049.58034815548	687.72639061581	127.976220778044	1595.20406486165	975.114824197926	136.581624544297	1892.2883951448	372.040743706305	127.265889559533	991.263348857622	698.259192810308	176.450782936263	1165.42218213659
287.682704451589	140.668308069274	572.665647668348	1371.88011270235	220.879455828245	1919.32437930922	673.749856128818	141.101082211157	1303.8556527032	1020.28851979529	159.004650252251	1424.39132098921	1027.82707091736	130	2321.87586577179	971.60612038016	147.938843073884	1404.21864461401	639.217298819463	128	1189.57554567374	1077.99611191979	169.370504651121	1503.12290053665	857.103957400642	141	1559.69909811932	1488.16163883108	184.470259639381	2172.28395177157	1318.9472625331	139	2437.26528995153	758.540320284983	148	1047.39977762061	685.789355659398	127.988250197392	1585.73221347412	973.441709450003	136.650143482056	1882.63705838069	371.798661865038	127.276136516073	988.257793288741	696.643955820468	176.440596417877	1158.47695342136
287.678663790612	140.708656262201	571.768873671673	1372.00423290251	220.770379517693	1914.87774251058	672.697304964827	141.082403674188	1298.578421897	1019.26150305725	159.011749802608	1418.42132284457	1027.49679758171	130	2316.26954569146	971.115489982978	147.95927654881	1399.73316970674	638.473631440961	128	1185.22010592893	1076.47478605022	169.373827680475	1497.2759408674	856.210792802329	141	1555.42151040075	1486.81863939753	184.523000092065	2164.82454777155	1318.17685005904	139	2429.76216530778	759.065135895033	148	1046.2454372232	684.334186180738	127.995349747749	1578.02780312119	972.589353850405	136.726927714332	1876.32949998138	371.648429429437	127.273080547663	985.824020222553	695.491246798271	176.457973924393	1152.98119084612
287.708067192082	140.746033966361	571.051571211541	1372.49032561171	220.756865182726	1911.32177653626	671.982228089757	141.061156926116	1294.36500962342	1018.90224130667	159.025106444853	1414.11213384851	1027.37012302758	130	2311.98445741309	971.005620243877	147.977548000941	1396.65277596976	637.906088266427	128	1181.47488360318	1075.60493738744	169.420852515873	1492.8986849155	855.603903226587	141	1552.0347556384	1486.39987957333	184.600736358548	2160.17481518303	1317.54552261846	139	2423.7203708911	759.61789047307	148	1045.90675728126	683.378581987792	127.998672777103	1572.28510830115	972.440277339766	136.802638923	1873.00106746685	371.587944145794	127.25613631843	984.033536752596	694.789777624649	176.499654147392	1148.92779751985
287.777655698626	140.777666867911	570.545025043253	1373.36538327073	220.850013043626	1908.75514154212	671.639063331911	141.04072345119	1291.34115107154	1019.20692262606	159.046700926337	1411.47919045672	1027.51510721941	130	2309.21840951444	971.282809125389	147.994227672539	1394.94022838159	637.5963489741	128	1178.54231652617	1075.45541060495	169.506055862831	1490.10980829986	855.34817348521	141	1549.60102315923	1486.82280611788	184.690854515393	2158.10910576664	1317.10505192694	139	2419.04527332407	760.188581180516	148	1046.15224143576	682.903008857165	128	1568.48651205026	972.867379942559	136.869690148487	1872.17301747674	371.606013091489	127.226729392565	982.868634235322	694.50637384417	176.559579630076	1146.20483589145
287.887250558588	140.800637554322	570.259528375126	1374.5726197469	221.046721181453	1907.14370342069	671.668521234157	141.023779221956	1289.52531614218	1020.11522414709	159.078884203872	1410.42101027641	1027.96484530781	130	2307.95896285681	971.939703418353	148.013077025505	1394.4618202658	637.589072838008	128	1176.49680636283	1076.01721146914	169.619007810679	1488.82662162032	855.458373615694	141	1548.07815114757	1487.93577393459	184.780186923941	2158.18358138846	1316.873323486	139	2415.54846733345	760.773727628865	148	1046.7653943715	682.851684926318	128	1566.41632034486	973.737092297939	136.922420301349	1873.27454429567	371.684293532347	127.188136137596	982.232937746633	694.585766849674	176.630233501656	1144.6032234558
288.029227640356	140.814295250009	570.188552453621	1375.9912588065	221.333630378743	1906.35663545112	672.036579451907	141.011749802608	1288.83500434736	1021.51386186873	159.122582951003	1410.73056946168	1028.72022716675	130	2308.01599586147	972.953569552144	148.038852053918	1395.0107908136	637.890737935757	128	1175.29484736841	1077.21454738811	169.744911891152	1488.80418485996	855.90320401235	141	1547.33595298938	1489.54373028408	184.857940345879	2159.80363315464	1316.84452933579	139	2412.99874845898	761.37835697127	148	1047.57435607285	683.139214870485	128	1565.70699035686	974.916877720481	136.959820723185	1875.68725988811	371.800039590743	127.144887823202	981.971612349726	694.953016988535	176.704117682038	1143.84466324746
288.191389164073	140.820033584971	570.301107285263	1377.45198460773	221.688943784598	1906.1715451723	672.671769629105	141.004650252251	1289.08217397469	1023.24091178024	159.178661909808	1412.1000995445	1029.74181438299	130	2309.07729302915	974.272695036103	148.076252475754	1396.33313712415	638.4650573236	128	1174.79752835433	1078.91192710419	169.869690148487	1489.69086459992	856.616362891906	141	1547.1896595074	1491.43198959521	184.917770049098	2162.32434842358	1316.99577630029	139	2411.18203589316	762.012114425437	148	1048.46597778354	683.667288940771	128	1565.90295188496	976.286344554485	136.982272722244	1878.8009070454	371.93105222229	127.101880377306	981.899585291894	695.523780091844	176.775007614943	1143.61823881074
288.357306442965	140.818792596765	570.546882516598	1378.76979791565	222.085499328994	1906.30718217303	673.473001998553	141.001327222897	1289.99176495319	1025.10230350697	159.244207230313	1414.1456591092	1030.94809468285	130	2310.75739980229	975.8092139081	148.125659599262	1398.14852176263	639.236134397838	128	1174.79885596474	1080.92445373957	169.980147333198	1491.08519123921	857.50286645303	141	1547.43128366748	1493.3862891214	184.957166277391	2165.13465256449	1317.28273853729	139	2409.92770984301	762.67624913722	148	1049.38223403721	684.333757109035	128	1566.54668399519	977.741753918208	136.994022524852	1882.08864944339	372.057826286083	127.064502673146	981.839829543405	696.213340780486	176.83871212194	1143.63274851013
288.509546025878	140.811327194977	570.857833095688	1379.76865390578	222.494727185691	1906.45435007104	674.319590712402	141	1291.23194007902	1026.89051209106	159.314493571776	1416.44242579219	1032.22338509764	130	2312.66299868833	977.436429388035	148.184284051494	1400.17500927001	640.095814767584	128	1175.05946174088	1083.0363126806	170.066413403941	1492.59524998701	858.460354498453	141	1547.86063678221	1495.22111203378	184.976295247097	2167.73651102566	1317.65138093655	139	2409.11853922583	763.362280663699	148	1050.30269503232	685.050715072919	128	1567.24483552167	979.204396758304	136.997345554206	1885.15031837853	372.16827866362	127.035529024564	981.647314546859	696.94751989057	176.890814924649	1143.64993702282
288.633904732631	140.800005466569	571.157181341775	1380.31484698735	222.892315870833	1906.31460997682	675.091768622856	141	1292.45811840665	1028.41682103263	159.382319412218	1418.5762906159	1033.42942387898	130	2314.44188766702	979.000378971659	148.244642811461	1402.15030082165	640.920381284887	128	1175.34133156841	1085.02698877646	170.121710089219	1493.88916373441	859.392155098364	141	1548.3085287118	1496.79478663931	184.977622469994	2169.78537786267	1318.03543929604	139	2408.66828868132	764.042004227427	148	1051.21343016908	685.74532143855	128	1567.71848401942	980.610350912185	136.995349747749	1887.74138476645	372.254026047011	127.016400054859	981.232610888366	697.661607696919	176.92819262881	1143.51002287596
288.720953146474	140.78352710875	571.368581554366	1380.33582659023	223.256828023646	1905.63291222412	675.689742929841	141	1293.3535951323	1029.53744028579	159.439188926492	1420.18778005316	1034.43465375916	130	2315.81998261293	980.34461567843	148.297383264146	1403.84877743531	641.589092465924	128	1175.4331747548	1086.70324043003	170.143044750669	1494.72599331464	860.22049991463	141	1548.64964639876	1498.02688557215	184.961816529642	2171.10994746785	1318.36608529128	139	2408.49358657765	764.670134642662	148	1052.08505190966	686.365116053722	128	1567.81064320876	981.907016268499	136.988250197392	1889.75497646082	372.310532720876	127.005977475148	980.561760918799	698.305070902993	176.948070920577	1143.13064286462
288.767448925124	140.763519670196	571.433287035971	1379.82936876667	223.572386960458	1904.25064756997	676.048036231296	141	1293.68572525625	1030.17479350994	159.476999907935	1421.03034974463	1035.13661924819	130	2316.62197841847	981.336332027782	148.33343930763	1405.09939840772	642.006419238472	128	1175.17174253497	1087.92755056865	170.13168427402	1494.97442713281	860.894607820337	141	1548.80363024435	1498.89910994771	184.930847074603	2171.69665964074	1318.57322696575	139	2408.4759792399	765.189532290393	148	1052.85607160644	686.872180705777	128	1567.46786586601	983.045279456015	136.976220778044	1891.18743752473	372.333508214462	127.001327222897	979.648864718504	698.835774891053	176.94674369768	1142.4906475017
288.777366078702	140.739384848741	571.316723222235	1378.85983675582	223.82921285181	1902.12843109371	676.149271451679	141	1293.33722257527	1030.33029935526	159.489815075579	1420.99877218177	1035.48765545819	130	2316.76875732807	981.901008961983	148.346254475274	1405.79445176609	642.119277444682	128	1174.45247904778	1088.64221239832	170.093093452786	1494.60878733396	861.397142545257	141	1548.72330310041	1499.45819427886	184.885042597189	2171.64372948814	1318.6035325348	139	2408.43522279762	765.547158018742	148	1053.43358264958	687.243283971792	128	1566.70469721791	983.977976927896	136.957949325913	1892.09045929032	372.318160572934	127	978.53783868158	699.220456009049	176.923542376559	1141.6078160663
288.758332750518	140.711458100894	571.019074368318	1377.53775227261	224.022781515183	1899.36041427592	676.019682711924	141	1292.32126878273	1030.07337268444	159.475244969977	1420.13902233378	1035.50519702049	130	2316.26684479469	982.039477791559	148.33343930763	1405.89500821938	641.928763240477	128	1173.23248609617	1088.8789690731	170.036056043485	1493.68892377123	861.738993575058	141	1548.38027023875	1499.79483556491	184.826682702592	2171.10469749413	1318.42270548883	139	2408.13230824736	765.70386353113	148	1053.70682515482	687.465451850106	128	1565.56355119826	984.665733019969	136.932865598736	1892.53237228805	372.258582961604	127	977.286454910745	699.435962351888	176.879065122041	1140.51545662685
288.720229686591	140.680856175974	570.571623390231	1375.99736998293	224.153620423443	1896.14872798354	675.721348731712	141.001327222897	1290.76813681768	1029.52427156786	159.436387087799	1418.6258148645	1035.26669924304	130	2315.18901981028	981.828185655565	148.297383264146	1405.43098127481	641.487039475958	128	1171.53088701903	1088.74612555983	169.969807721748	1492.33639852441	861.955971033611	141	1547.75482577847	1500.02585585602	184.758063385709	2170.23869255179	1318.03011661254	139	2407.30026505496	765.650431569694	148	1053.57769336074	687.536181834316	128	1564.08762070949	985.085206483904	136.901196270953	1892.5775199713	372.14934409705	127.001327222897	975.95239776436	699.470531223781	176.81626012288	1139.25007994485
288.672512305339	140.647611008173	570.024998390794	1374.37336847234	224.226553344613	1892.75788429876	675.333586631857	141.004650252251	1288.88222189872	1028.82179965593	159.379502583993	1416.70851892045	1034.88829064763	130	2313.64486335604	981.400303730491	148.244642811461	1404.48681251341	640.883229362197	128	1169.41540565563	1088.40205505574	169.905231590905	1490.69622524499	862.093776127502	141	1546.83180363304	1500.25705643742	184.682356984215	2169.17072716325	1317.45124096859	139	2405.70830973279	765.408879744178	148	1052.9950015267	687.463773799773	128	1562.30299573033	985.239465790726	136.863388764279	1892.27617968445	371.990166490409	127.004650252251	974.582026512448	699.328101405411	176.740261638901	1137.84225149135
288.622405309086	140.614334840752	569.439868180545	1372.78195382613	224.250680299981	1889.46254864312	674.934685041556	141.011749802608	1286.89522961402	1028.09448050237	159.314581485154	1414.65743262808	1034.49832475772	130	2311.7673840488	980.916100398749	148.184284051494	1403.19413857851	640.225225806031	128	1166.99334451322	1088.02208889176	169.850046577715	1488.91689307103	862.198657952494	141	1545.59767815119	1500.5624273396	184.603009278436	2167.96732714126	1316.73813723648	139	2403.21232636501	765.032809565852	148	1051.97500600418	687.267155613151	128	1560.22680891923	985.163679703435	136.821599948054	1891.67882745388	371.786226450288	127.011749802608	973.212891755012	699.030942482234	176.658033587884	1136.32431029122
288.575471445979	140.583096994171	568.870526643461	1371.3155923866	224.237975763391	1886.49197153971	674.587519131407	141.023779221956	1285.01117723041	1027.4383707309	159.251848255272	1412.70356912092	1034.20664844669	130	2309.7026391538	980.525119201931	148.125659599262	1401.71867252461	639.613249264076	128	1164.3984764876	1087.75913247475	169.809670859937	1487.13480509753	862.30922805696	141	1544.0559303196	1500.9740033163	184.523173815352	2166.64992938738	1315.96265249433	139	2399.81553495965	764.599977680252	148	1050.61689834186	686.976547594394	128	1557.88271983702	984.92918289167	136.779659905021	1890.85734102741	371.55105252559	127.023779221956	971.876563325874	698.619508350316	176.577381376884	1134.73800882433
288.533713629372	140.558187211477	568.355750472785	1370.03289303371	224.20261485505	1883.9918848074	674.325036737834	141.04072345119	1283.36611495715	1026.90226462575	159.200706824029	1411.00004021093	1034.08622947157	130	2307.60055989954	980.341993681997	148.077579698651	1400.24607020277	639.123679596326	128	1161.77656007302	1087.72238790774	169.78634763294	1485.46881994931	862.453359854091	141	1542.23790799123	1501.48703594749	184.446659702933	2165.21574542272	1315.20827531398	139	2395.68699259463	764.200965274909	148	1049.09084400833	686.629878168195	128.001327222897	1555.32022640487	984.630087264225	136.742542020895	1889.91499207205	371.303614731068	127.042050674087	970.604293683263	698.149532513231	176.506600037206	1133.14165235117
288.500177641918	140.541844486233	567.917980126758	1368.97190576366	224.159960655163	1882.03443035463	674.15584715898	141.061156926116	1282.02514278328	1026.49746402644	159.167143381298	1409.62547594591	1034.16535115245	130	2305.60052162041	980.430113266921	148.044829529066	1398.96057496491	638.798194296814	128	1159.26563062749	1087.96453420815	169.779136410495	1484.01682613239	862.647075692145	141	1540.22228623629	1502.07470373398	184.37583188687	2163.69040182673	1314.5590089137	138.998672777103	2391.16461010094	763.926095867215	148	1047.6232609941	686.268953000681	128.004650252251	1552.62589591332	984.372711823262	136.715431903498	1888.9949768868	371.066889920054	127.065807178367	969.430407674534	697.68536041199	176.450780898436	1131.61198552886
288.477175955888	140.536510660891	567.564515904975	1368.15038514678	224.124257907312	1880.62698254184	674.066087776736	141.082403674188	1280.98609791692	1026.20296311732	159.152604205742	1408.59343322676	1034.43298699906	130	2303.84008353723	980.805221239381	148.029477080364	1398.04093120002	638.642706222272	128	1156.9919545269	1088.48852948281	169.785785528115	1482.86895015769	862.900237421861	141	1538.13216655718	1502.71518005985	184.314848905236	2162.15051461586	1314.09702760657	138.995349747749	2386.69949259127	763.855629825633	148.001327222897	1046.45749282884	685.934302663429	128.011749802608	1549.91919407644	984.257827351828	136.702616735854	1888.26526831062	370.862700439926	127.094153476796	968.392958957044	697.289807140396	176.413921881628	1130.23652292032
288.467470869857	140.53985348695	567.296887368476	1367.57332888051	224.107336395755	1879.75159063578	674.02871860061	141.101082211157	1280.20961405845	1025.98230449681	159.154618130216	1407.8866208431	1034.84776617078	130	2302.43488026934	981.436754647405	148.029756697104	1397.63586563168	638.630335431623	128	1155.05118116545	1089.25396597987	169.801687663788	1482.10312628471	863.216394543448	141	1536.12808727471	1503.40857620628	184.267564249804	2160.74496139607	1313.88772917713	138.988250197392	2382.78801013036	764.048755197325	148.004650252251	1045.81743242577	685.655844317346	128.023779221956	1547.34466368032	984.360240470825	136.70648597741	1887.90310694881	370.707799993195	127.124861433113	967.530642955678	697.013601651458	176.39522752161	1129.10298711265
288.473757147069	140.550279125575	567.113424486792	1367.24197344522	224.119086198363	1879.38548966557	674.01677968088	141.113897378801	1279.64069358877	1025.80242262327	159.169025078392	1407.48131423735	1035.35877603642	130	2301.47486159227	982.269372890747	148.042050674087	1397.85048785562	638.716146045189	128	1153.50564752662	1090.19820624839	169.82292717095	1481.78349859093	863.590183337416	141	1534.3859673743	1504.17481164597	184.238417143974	2159.68817910135	1313.9672061889	138.976220778044	2379.88557042412	764.53161535673	148.011749802608	1045.87498968979	685.450583588011	128.04072345119	1545.03755525557	984.718318377976	136.726919452337	1888.05402433778	370.61056986814	127.15462082999	966.871883809828	696.886990792983	176.391363017655	1128.27860632419
288.497893647212	140.563880111087	567.020635622662	1367.15095725978	224.165764407024	1879.53240587894	674.008805644228	141.118459717673	1279.24646009095	1025.64194988732	159.190244371188	1407.37738312338	1035.91723214417	130	2301.02463072566	983.236323565506	148.061156926116	1398.73818003019	638.848770520012	128	1152.38397372304	1091.25220777073	169.846011257763	1481.95743467717	864.007909379313	141	1533.06506447499	1505.0524006035	184.231768026354	2159.22160988874	1314.33574795884	138.95927654881	2378.32314078367	765.295911597631	148.023779221956	1046.72021220809	685.318104055131	128.061156926116	1543.10272549244	985.326488628321	136.761241188087	1888.80847506126	370.570484066925	127.179616643789	966.43115873598	696.913427368022	176.397504671315	1127.79877229736
288.540115344812	140.578022501628	567.028237026868	1367.28975830918	224.24949530411	1880.21138732856	673.994229976405	141.113897378801	1279.01694518847	1025.49452614604	159.215355553641	1407.59441754516	1036.4875851814	130	2301.10531723572	984.272135838297	148.082403674188	1400.28666983269	638.98072884855	128	1151.67339762346	1092.35283708095	169.869702566341	1482.63705840733	864.444485667165	141	1532.27228649326	1506.07707913475	184.250896996059	2159.55650993114	1314.95223541477	138.938843073884	2378.23832873786	766.296823640462	148.042050674087	1048.34327803689	685.243090113901	128.082403674188	1541.59195387926	986.139075579594	136.804764312047	1890.17878546041	370.576783413306	127.196301052989	966.203459982182	697.072092183941	176.408162623337	1127.65495243697
288.597407766973	140.589658198413	567.149837205941	1367.6353898145	224.368379262075	1881.449750034	673.971300405937	141.101082211157	1278.96962366765	1025.36470775489	159.242343699128	1408.16395713555	1037.05294682814	130	2301.69536470659	985.32400289354	148.101082211157	1402.41735950199	639.078977658671	128	1151.32859867328	1093.44999160495	169.892940313696	1483.7913040647	864.86458265361	141	1532.03771731425	1507.2634649842	184.296942341973	2160.81677766395	1315.74163251089	138.917596325812	2379.5523211302	767.461093144751	148.065807178367	1050.63562958644	685.198833526873	128.101082211157	1540.49388680789	987.080311758001	136.851789147445	1892.0952028515	370.613551526192	127.202164422313	966.162402064948	697.322681649574	176.420052449839	1127.79861774514
288.665760488393	140.599693489992	567.391986405222	1368.14441535949	224.518349839814	1883.24446558519	673.941343985425	141.082403674188	1279.12841192024	1025.25572696211	159.272553528743	1409.1015016791	1037.60790277791	130	2302.73790543053	986.349091492533	148.113897378801	1404.99593194317	639.125095169772	128	1151.27888164984	1094.50535315466	169.916269102915	1485.34024330242	865.228617030529	141	1532.31205245451	1508.58713034231	184.368117404214	2163.00371376514	1316.60596850785	138.898917788843	2382.00037645806	768.698371736396	148.094153476797	1053.41315561965	685.154706639899	128.1138973788	1539.73818900225	988.060211208325	136.896792399797	1894.41653646305	370.66163929289	127.196301052989	966.26630721323	697.614531281715	176.433043240654	1128.14663750697
288.73895713368	140.608898840206	567.745060108691	1368.75637770565	224.690866933246	1885.52311461485	673.905280263422	141.061156926116	1279.49098503612	1025.16040178922	159.306603465948	1410.36845575718	1038.14909897425	130	2304.12483070643	987.308033806226	148.118459717673	1407.83159114132	639.112276923267	128	1151.43192961981	1095.48241877254	169.938843073884	1487.14681382889	865.496334907247	141	1532.96794735547	1509.97546514483	184.458409505541	2165.96848674391	1317.43514054174	138.8861026212	2385.17568011359	769.911052906567	148.124861433113	1056.43990859424	685.079493336735	128.118459717673	1539.21517695047	988.986626147871	136.935497326854	1896.96004790665	370.702624380745	127.179616643789	966.465369614676	697.896536508138	176.449982732287	1128.60289147789
288.809738473358	140.617413167699	568.179607202818	1369.39197771274	224.87381134399	1888.13654051228	673.855730820226	141.04072345119	1280.01454792481	1025.05313679297	159.343555133735	1411.86405173451	1038.66506150152	130	2305.71055206457	988.153933105062	148.113897378801	1410.69715705983	639.037405321672	128	1151.68430711896	1096.33885788539	169.95927654881	1489.03022151006	865.635069749595	141	1533.82494332428	1511.31443836241	184.559317772215	2169.43042403135	1318.12403504993	138.881540282327	2388.60757535412	771.005940996123	148.15462082999	1059.46720187528	684.947856262326	128.1138973788	1538.79229581428	989.780387420151	136.964470975436	1899.52404595233	370.721642719396	127.15462082999	966.70798551633	698.123706684934	176.474389234822	1129.06762111578
288.873013177841	140.628027809911	568.647517670515	1369.96785829026	225.054381284819	1890.86498991811	673.780267171628	141.023779221956	1280.60840260597	1024.89426671195	159.381254047182	1413.42692005754	1039.13013823791	130.001327222897	2307.30736183707	988.83323525829	148.102409434054	1413.34543557253	638.898684124045	128	1151.92668604189	1097.02601684096	169.976220778044	1490.78331610618	865.625069322723	141	1534.67587315439	1512.46355187232	184.66163929289	2173.01215338896	1318.57768618586	138.8861026212	2391.82000167611	771.902742664487	148.179616643789	1062.25815780692	684.740824091794	128.101082211157	1538.34034582673	990.379848637446	136.983599945141	1901.92002973	370.708046936966	127.124861433113	966.945575080442	698.262394729846	176.509835153182	1129.45564475954
288.923747524246	140.640416941182	569.089872850993	1370.40782007452	225.218499060274	1893.45150517399	673.663379158063	141.011749802608	1281.14464669635	1024.64057018106	159.415315962898	1414.86422553656	1039.5101886108	130.004650252251	2308.70609655586	989.293089356001	148.087053926439	1415.54442072909	638.693233307933	128	1152.05443357807	1097.49699038184	169.988250197392	1492.20479854003	865.463809289657	141	1535.32303577621	1513.28920187538	184.755530911825	2176.30876208949	1318.72749897431	138.898917788843	2394.4008757645	772.543248247103	148.196301052989	1064.61931433475	684.449321886279	128.082403674188	1537.74640626188	990.749980162599	136.994022524852	1903.9896422373	370.656351219094	127.094153476796	967.136927703428	698.294185206653	176.558702839916	1129.69988823913
288.959820723185	140.65546537678	569.452078493596	1370.65860256966	225.353089734035	1895.66418862534	673.492891979245	141.004650252251	1281.49353793571	1024.26094804288	159.439969937187	1416.00011494844	1039.769358246	130.011749802608	2309.69948450804	989.493982272378	148.072906728724	1417.11059689952	638.419038947055	128	1151.97715485141	1097.71966671372	169.995349747749	1493.1361546416	865.166818439228	141	1535.61022484621	1513.69233125655	184.83536637491	2178.96041795639	1318.53298233066	138.917596325812	2396.04096039712	772.895545443824	148.20349164521	1066.41779416283	684.071411152391	128.061156926116	1536.92653034664	990.880872723926	136.998672777103	1905.61960117243	370.564486336661	127.065807178367	967.246426216446	698.214717760921	176.619409333295	1129.75358950643
288.982272722244	140.672175978424	569.693354079094	1370.6967666615	225.448308575867	1897.33778014069	673.265519691922	141.001327222897	1281.55223706656	1023.74699859138	159.449462075477	1416.71570533687	1039.88544360548	130.023779221956	2310.11691409286	989.428253154345	148.064502673146	1417.94398888417	638.080974220175	128	1151.63205025767	1097.69018766241	169.998672777103	1493.4932959087	864.765778924562	141.001327222897	1535.45426951919	1513.63594141709	184.898663797069	2180.73540468883	1317.99250911136	138.938843073884	2396.58577145318	772.960821620718	148.202278528136	1067.60209988124	683.61672162925	128.04072345119	1535.83492158786	990.791667148568	137	1906.75549109656	370.436276456745	127.042050674087	967.24550839866	698.035091522731	176.688334459362	1129.59350957872
288.994022524852	140.690068767097	569.794669292663	1370.5332979105	225.500525138117	1898.40815673346	672.989363379143	141	1281.26935627729	1023.11622698082	159.440949426672	1416.97596554787	1039.86153167724	130.04072345119	2309.86656459545	989.129645756298	148.064502673146	1418.05673637842	637.694245158167	128	1150.9949949894	1097.4459279943	170	1493.29028942946	864.303865844378	141.004650252251	1534.85649359159	1513.1536338052	184.946199523305	2181.57229532027	1317.14248901417	138.95927654881	2396.0464242648	772.771348093323	148.197343921545	1068.20545002405	683.107869331252	128.023779221956	1534.47698164553	990.532908735363	137	1907.41921384549	370.280908740234	127.023779221956	967.119510348261	697.782921617422	176.759390608606	1129.22422653954
289	140.709550207816	569.76030919485	1370.21315147099	225.512362854103	1898.91312686094	672.685082187932	141	1280.65677767808	1022.41429389697	159.416192753058	1416.83238339828	1039.72522857537	130.061156926116	2308.95822763995	988.667431154462	148.074233951621	1417.57536537152	637.283951936435	128	1150.08700502956	1097.05663991789	170.001327222897	1492.63917029929	863.829943414708	141.011749802608	1533.90959375827	1512.34736568755	184.983320328401	2181.60588845756	1316.05506707782	138.976220778044	2394.60928291572	772.386600006983	148.194800106805	1068.34591295016	682.580957056782	128.011749802608	1532.916278791	990.18159976816	137	1907.71510852003	370.113037161452	127.011749802608	966.872431683019	697.49730062875	176.826682702592	1128.68315861862
289.005977475148	140.731219933348	569.614707912291	1369.8087287008	225.493399962794	1898.98293790865	672.38351215269	141	1279.78411925417	1021.70644804945	159.380917720268	1416.40993399887	1039.52562292672	130.082403674188	2307.50748426636	988.13645999375	148.09170417869	1416.71384409736	636.883052590167	128	1148.97046045695	1096.61821544396	170.005977475148	1491.72755965254	863.393051373448	141.023779221956	1532.77626020019	1511.36684111196	185.015352448702	2181.13373231006	1314.82554933345	138.988250197392	2392.59633939858	771.882505685001	148.202441131764	1068.20178382286	682.0862023014	128.004650252251	1531.27723664187	989.834081068608	137	1907.82584261695	369.95350131406	127.004650252251	966.530721967234	697.227540958198	176.885042597189	1128.04392257942
289.017727277756	140.755263712939	569.401226030962	1369.41547185545	225.459474870577	1898.82268878203	672.124835715486	141	1278.77784475244	1021.07273518782	159.345577491776	1415.89149686616	1039.32929138405	130.101082211157	2305.73271352603	987.645767600447	148.115486459559	1415.744983503	636.52998105262	128	1147.74382110513	1096.2400909027	170.017727277756	1490.79337384133	863.039179365887	141.04072345119	1531.65080220552	1510.3839333885	185.049150224444	2180.5422430029	1313.56161502846	138.995349747749	2390.39073308139	771.339128500062	148.225790551206	1067.97066642657	681.682652892584	128.001327222897	1529.73199351896	989.593983460532	137	1907.98460291864	369.825025963571	127.001327222897	966.14459326833	697.025373698168	176.930847074603	1127.40960256857
289.041506499712	140.781409330383	569.173399869761	1369.1359728545	225.430173838166	1898.67803356955	671.953197660115	141	1277.80205430491	1020.59273353195	159.321786928964	1415.48632275544	1039.2084142006	130.1138973788	2303.92439421265	987.30439171636	148.143654075904	1414.9572495064	636.263672671485	128	1146.53073021599	1096.02892453889	170.041506499712	1490.08471191534	862.810274881356	141.061156926116	1530.72747354733	1509.57093219623	185.089586400323	2180.23222518205	1312.37816375108	138.998672777103	2388.37969506672	770.835624222365	148.267818507617	1067.83941142311	681.429678298075	128	1528.48140192639	989.555943560235	137	1908.4428235554	369.748616919985	127	965.782114648207	696.938362789363	176.963143752539	1126.90377718178
289.082229950902	140.808545640224	568.987281852318	1369.06207747504	225.42682999102	1898.79410116779	671.907017232698	141	1277.03186211068	1020.32988991718	159.320721563929	1415.39145452846	1039.22812099884	130.118459717673	2302.40705895661	987.203323936404	148.176910446619	1414.61300769461	636.11640711194	128	1145.46814559521	1096.07151313871	170.082229950902	1489.82600639657	862.739200150347	141.082403674188	1530.16055781043	1509.0654155095	185.139527180237	2180.52526546469	1311.38251948894	139	2386.88896953429	770.43869449851	148.32819998526	1067.94877226503	681.374409457792	128	1527.70582401693	989.784672526299	137	1909.40114791491	369.737556690299	127	965.511874169644	697.001644708617	176.983599945141	1126.6411853588
289.143386877018	140.831760669904	568.890557257128	1369.25759124527	225.468764205793	1899.36798106773	672.012818336898	141	1276.62011253075	1020.31604993296	159.34837350221	1415.75090774655	1039.43781099981	130.1138973788	2301.48159867638	987.402261982094	148.216560804629	1414.90461572245	636.110059802809	128	1144.6837746002	1096.42079237112	170.143386877018	1490.17750618063	862.849156508582	141.101082211157	1530.04277146294	1508.95837827484	185.197768161837	2181.60901401359	1310.67094647426	139	2386.15722364626	770.200259191677	148.403392437003	1068.38458807247	681.542987834524	128	1527.53981651437	990.304512587693	137	1910.98120578232	369.796181142531	127	965.392926618901	697.23217300067	176.995349747749	1126.71410827068
289.225790551206	140.848443400415	568.910676367769	1369.74741116618	225.571544090935	1900.5018754718	672.277495404535	141	1276.66016358442	1020.53963510908	159.405756966235	1416.61848151033	1039.85443875846	130.101082211157	2301.36667850977	987.910999104391	148.26438861335	1415.92279808925	636.24569689007	128	1144.27582643733	1097.07791699023	170.224463328309	1491.20677396718	863.144723047803	141.113897378801	1530.39860976395	1509.26784013532	185.260803726135	2183.50722859059	1310.31033067539	139	2386.3283126149	770.150842842638	148.488575987256	1069.17896461175	681.933565903772	128	1528.04110737669	991.094661051999	137	1913.19543354688	369.917007255692	127	965.463165193273	697.62665032142	177.004650252251	1127.17235094451
289.326872762363	140.854186542551	569.051990248702	1370.5138213595	225.741517369627	1902.18313211521	672.683636848806	141	1277.16220211105	1020.94550177793	159.487471067501	1417.93798432015	1040.45732915811	130.082403674188	2302.14787337871	988.680413512149	148.320895287215	1417.6319455193	636.501581520591	128	1144.29021264174	1097.98727861476	170.322222510112	1492.86907416782	863.609166345899	141.118459717673	1531.1797468053	1509.94216660242	185.322749529033	2186.07083435667	1310.32940080048	139	2387.4361434835	770.295275105784	148.576695278731	1070.30787275342	682.509147066042	128	1529.17857311582	992.084685370394	137	1915.94806534365	370.082229950902	127	965.732990390646	698.157457775388	177.017727277756	1128.01605618549
289.44209736406	140.848443400415	569.29551382267	1371.5098137763	225.978340560027	1904.29604144999	673.196285853331	141.001327222897	1278.05095678793	1021.45088099784	159.585663526586	1419.55971098897	1041.18812496831	130.061156926116	2303.74262315828	989.608462813524	148.383117578367	1419.86766940686	636.833102348481	128	1144.70192822166	1099.04115077034	170.429020338555	1495.00385189627	864.200001344221	141.115224601697	1532.27629670713	1510.85846102349	185.377332833053	2189.00839425665	1310.7002944996	139.001327222897	2389.39987065885	770.606715754381	148.66163929289	1071.69863377851	683.204084259692	128	1530.83036230537	993.167018916201	137	1919.04608432891	370.266558898141	127	966.18093258026	698.776220328036	177.040179276815	1129.19163496908
289.565207333984	140.831760669904	569.607719451398	1372.67126581595	226.270620080272	1906.65868707915	673.767747719982	141.004650252251	1279.18589972161	1021.9637736774	159.689527292496	1421.27323407711	1041.96160706474	130.04072345119	2305.9241298993	990.563704887504	148.444549431514	1422.37759280035	637.183512481771	128	1145.42303701562	1100.1024413507	170.53545063688	1497.37035149654	864.852761036881	141.105732463407	1533.53537264246	1511.85013953899	185.420755091931	2191.93706709072	1311.34485864262	139.004650252251	2392.02560588462	771.036367186623	148.738153405309	1073.2376005928	683.927622420685	128	1532.79954094829	994.208809793322	137	1922.23518370206	370.441359211283	127	966.759071573607	699.416568809404	177.076252475754	1130.59979560126
289.690854515393	140.807218417328	569.948318056719	1373.93836070457	226.600303081266	1909.072660144	674.349994889288	141.011749802608	1280.39233354409	1022.40335688998	159.790609503652	1422.85484878968	1042.68519482668	130.023779221956	2308.37256542333	991.412028024355	148.496216791018	1424.87810367717	637.494067116483	128	1146.32114770683	1101.03114963761	170.632403786447	1499.69217419739	865.490663348628	141.095480699693	1534.78341337447	1512.73810822583	185.451459919761	2194.44948714815	1312.14902536059	139.011749802608	2395.02697792908	771.521218119219	148.803872670298	1074.78713673774	684.577157632803	128	1534.84112843403	995.074410244373	137	1925.24218687904	370.577566269456	127.001327222897	967.400019204118	700.004956813485	177.125659599262	1132.10840431909
289.814388725609	140.778086301029	570.278991246469	1375.25668288434	226.942876493951	1911.36197623906	674.896469593853	141.023779221956	1281.49322961723	1022.70938201391	159.881719567835	1424.10577378153	1043.27577018627	130.011749802608	2310.73555027683	992.046971400111	148.528674995583	1427.10871941516	637.715931194566	128	1147.24539001547	1101.70999717422	170.711725299781	1501.70805788555	866.036746213294	141.089586400323	1535.85301227853	1513.36368902689	185.470848709501	2196.18448289071	1312.98474942779	139.023779221956	2398.06736197708	771.999174023967	148.857411289132	1076.20824305804	685.051438857021	128	1536.68764892673	995.644018507742	137	1927.81132200235	370.650646721467	127.004650252251	968.023897290365	700.467689700498	177.184284051494	1133.56907874731
289.932865598736	140.748164162582	570.570080992493	1376.58384108428	227.27325427095	1913.41290035395	675.368686219218	141.04072345119	1282.34479099417	1022.84711614384	159.958493500288	1424.89203794827	1043.68207233553	130.004650252251	2312.70785166842	992.413498519676	148.53439061287	1428.887954374	637.822041973343	128	1148.06007002106	1102.07134512273	170.769559196543	1503.21916908319	866.42949186756	141.093196704988	1536.61105883607	1513.61869545991	185.481143821114	2196.89084089814	1313.73721573542	139.04072345119	2400.81722170049	772.422316189429	148.899869048056	1077.38623373016	685.268258419849	128	1538.092137563	995.836675190415	137	1929.74910882091	370.644669246319	127.011749802608	968.555255710432	700.744575802866	177.244642811461	1134.84144999102
290.043429648361	140.720517736897	570.801605495415	1377.88489614125	227.569396546889	1915.16596175212	675.73857924931	141.061156926116	1282.84601877761	1022.80158591122	160.019650426404	1425.14118780254	1043.88556098746	130.001327222897	2314.07709880852	992.508765251958	148.511148058341	1430.1334798357	637.807424446934	128	1148.66544545363	1102.09938954037	170.803610812437	1504.11424208039	866.633507265262	141.108715370028	1536.97572651154	1513.4657793373	185.484199789524	2196.46434871297	1314.32934950014	139.061156926116	2403.00635261207	772.767359497139	148.932865598736	1078.24887615841	685.175747503501	128	1538.8562560802	995.621837214722	137	1930.94410632169	370.553861516553	127.023779221956	968.929024136676	700.797919643408	177.297383264146	1135.80938296496
290.14410477468	140.697256230832	570.965601736569	1379.12803848544	227.81404659926	1916.61868673594	675.988680023946	141.082403674188	1282.95201677463	1022.57728898152	160.064676396433	1424.85580884327	1043.90475965448	130	2314.74193399532	992.378776004481	148.461216685259	1430.85359104873	637.68707321604	128	1149.00589456497	1101.82757364119	170.814839424384	1504.36950314109	866.643398088452	141.134876927986	1536.91611097266	1512.93194120509	185.480601950604	2194.94063645123	1314.72553494986	139.082403674188	2404.44942030647	773.031376046355	148.957949325913	1078.76929687711	684.759819042041	127.998672777103	1538.84730360875	995.022901250285	137	1931.36527281688	370.382125433816	127.04072345119	969.098330478071	700.616278696851	177.33343930763	1136.39161620571
290.231565785956	140.681385094779	571.06579581671	1380.27946748428	227.999697428371	1917.8050459163	676.114900368589	141.101082211157	1282.67380227755	1022.18928250327	160.095104736009	1424.095298571	1043.78544042578	130	2314.70980417813	992.102858835535	148.394069214826	1431.1256537809	637.491322877394	128	1149.06833622459	1101.32612297172	170.805362275626	1504.03653428642	866.483443419458	141.166889389524	1536.44669599842	1512.09991328669	185.469373338657	2192.47031878603	1314.93288936595	139.101082211157	2405.04893916287	773.229690232826	148.976220778044	1078.9567170466	684.04190457058	127.995349747749	1538.00552977473	994.104906297542	137	1931.04905586043	370.14149522463	127.061156926116	969.034914555231	700.214018941667	177.346254475274	1136.54711492719
290.303155591606	140.673381229412	571.110870680452	1381.29706620672	228.126510306047	1918.76385372499	676.123046949552	141.113897378801	1282.06144754471	1021.65750361159	160.112570155904	1422.95406246712	1043.59045375842	129.998672777103	2314.07468102329	991.773035871905	148.320895287215	1431.06512061529	637.258853574982	127.998672777103	1148.8745554112	1100.68316465883	170.777461720224	1503.21821810689	866.19764789744	141.197628275886	1535.62474167907	1511.08176086059	185.448396710441	2189.29078588644	1314.99379674609	139.113897378801	2404.81382093676	773.388786119775	148.986922974495	1078.85525796289	683.075553464128	127.988250197392	1536.32920208747	992.96390297627	137	1930.06376535972	369.849308424938	127.082403674188	968.722587705161	699.628575585928	177.334766530527	1136.26532782275
290.355891306689	140.674187261648	571.111132934221	1382.12853570259	228.201031602552	1919.51362067399	676.026070865897	141.118459717673	1281.18391565192	1020.99872301822	160.118459717673	1421.53180023558	1043.3868890803	129.995349747749	2312.98371566028	991.475607426029	148.254764199788	1430.79562648366	637.028603671067	127.995349747749	1148.46718931129	1099.98734379944	170.732956940856	1502.04003207789	865.840812942218	141.21954192883	1534.52490957219	1509.99668765184	185.415407400671	2185.66447477801	1314.97239579705	139.118459717673	2403.82417764668	773.537226111156	148.990699495499	1078.52431116308	681.933788340838	127.976220778044	1533.87131671583	991.706874055701	137	1928.49712459784	369.524125074564	127.101082211157	968.159853017523	698.91291755645	177.303360739293	1135.56624565714
290.386977926464	140.682986372194	571.07191913594	1382.71377693634	228.233753226202	1920.03069597865	675.838834186511	141.113897378801	1280.10481593933	1020.22516760737	160.1138973788	1419.90677066406	1043.22967385509	129.988250197392	2311.59331310459	991.268014832339	148.204543803134	1430.41511845874	636.831876073921	127.988250197392	1147.89391948225	1099.30517787825	170.673127237637	1500.61860836456	865.465266471523	141.227794757601	1533.2425290551	1508.94244849378	185.370295555091	2181.86387041807	1314.93545479613	139.113897378801	2402.24514513693	773.698529931464	148.986922974495	1078.04295664664	680.700153168802	127.95927654881	1530.73044157173	990.434850001387	137	1926.44911220972	369.184284051494	127.115224601697	967.358988216865	698.127418569399	177.262370089217	1134.49837330802
290.394596233746	140.69848997813	570.989886118621	1382.99830422336	228.23601089052	1920.25082803259	675.575601396584	141.101082211157	1278.86314704761	1019.3424366234	160.101082211157	1418.12305021779	1043.15282422224	129.976220778044	2310.02878406218	991.170010025394	148.176383427698	1429.97611786752	636.686284393687	127.976220778044	1147.18872377682	1098.6756358485	170.599155143877	1499.03788596433	865.116386856824	141.21954192883	1531.86866113563	1507.98884110533	185.313783319004	2178.12202565459	1314.94250048896	139.101082211157	2400.27066246475	773.888149386236	148.976220778044	1077.48672084137	679.459823852558	127.938843073884	1527.04983845711	989.236085469914	137.001327222897	1924.03671123205	368.847504559056	127.123109969924	966.35168470521	697.335565945245	177.225790551206	1133.13837427213
290.379786938334	140.717863291103	570.859044648529	1382.94706159018	228.21690463849	1920.09933965418	675.2505344559	141.082403674188	1277.48017405482	1018.36148998019	160.082403674188	1416.20196664614	1043.16812762918	129.95927654881	2308.36351627628	991.171817470797	148.172345407972	1429.48503062113	636.596783344911	127.95927654881	1146.36705318533	1098.11108274715	170.513944068774	1497.34220033634	864.823504337538	141.196301052989	1530.48571672941	1507.16394628591	185.250620286609	2174.62012232076	1315.02797296439	139.082403674188	2398.09973628621	774.106805224516	148.95927654881	1076.92138346757	678.28707822555	127.917596325812	1522.99895483775	988.171156356414	137.005977475148	1921.38312108411	368.527650344316	127.126974404306	965.183257385469	696.591188551137	177.207889550164	1131.57892773977
290.347052245515	140.737629910783	570.675701414943	1382.56025049716	228.182433472014	1919.52421110496	674.880781130457	141.061156926116	1275.96705953883	1017.30289459348	160.061156926116	1414.15876552268	1043.26691970116	129.938843073884	2306.62067797152	991.242936631539	148.190075385502	1428.91335049647	636.556992705041	127.938843073884	1145.42858549883	1097.60654636923	170.422880480977	1495.54575619343	864.602133331964	141.162239137273	1529.15763325406	1506.46294232614	185.185611274391	2171.47434390403	1315.20255522961	139.061156926116	2395.90594782594	774.345696308161	148.938843073884	1076.39231006605	677.239921259412	127.898917788843	1518.76872283059	987.273695346018	137.016400054859	1918.62277207608	368.236568464378	127.129511685363	963.914508933001	695.937095183929	177.219639352772	1129.92799699169
290.304158905443	140.751658195501	570.440235098246	1381.88067078497	228.135403946907	1918.51425638724	674.487121296262	141.04072345119	1274.33365976132	1016.20044292834	160.04072345119	1412.010729664	1043.42799089916	129.917596325812	2304.78201671802	991.348733554157	148.227100618649	1428.21784823467	636.55548777152	127.917596325812	1144.36402927103	1097.1498187035	170.332588379649	1493.64367946362	864.452810922168	141.123127125378	1527.91711356805	1505.85116902477	185.125659599262	2168.72028586399	1315.45185301484	139.04072345119	2393.8017020697	774.584586347121	148.917596325812	1075.91576854202	676.354194601897	127.886102621199	1514.54946808838	986.548217360344	137.035529024564	1915.88605850269	367.981930788267	127.134876927986	962.614145215113	695.397637457369	177.264642605124	1128.29256350343
290.261846594691	140.755530911825	570.163890665139	1380.98537071766	228.077824179861	1917.12132245568	674.091994646324	141.023779221956	1272.60712446602	1015.09536860722	160.023779221956	1409.79715981077	1043.6308266429	129.898917788843	2302.80569502791	991.469430567519	148.279858226787	1427.35714132569	636.581714253756	127.898917788843	1143.16289001206	1096.73762156405	170.252895861429	1491.62576402462	864.365090356895	141.084936148072	1526.76945460214	1505.27672858921	185.077579698651	2166.32575209384	1315.74454546417	139.023779221956	2391.84009812901	774.800743032724	148.898917788843	1075.48418364538	675.638965808258	127.881540282327	1510.51139036073	985.970827375986	137.065829896043	1913.28630338945	367.767044939948	127.147420297085	961.349697487551	694.978351166636	177.339949787868	1126.76618516735
290.231656354266	140.745347472299	569.863074051905	1379.96969534243	228.012278859356	1915.44101807729	673.715729216133	141.011749802608	1270.82396815784	1014.0266133421	160.011749802608	1407.56678892601	1043.86089902597	129.886102621199	2300.67230504938	991.600883787803	148.345551299331	1426.32392558097	636.629732724806	127.886102621199	1141.83534983092	1096.37563494841	170.1917358764	1489.50497761615	864.324444453619	141.052473253798	1525.69375085706	1504.68876584483	185.044829529066	2164.20252132361	1316.04977875357	139.011749802608	2390.01841832444	774.97560685315	148.8861026212	1075.07318880888	675.080978096657	127.8861026212	1506.77511128908	985.501363537389	137.107857852454	1910.89575558453	367.591461716226	127.168500828819	960.174748646774	694.669220937599	177.434997813703	1125.41096757713
290.222164215976	140.719024435604	569.558269562633	1378.92530015346	227.943493326134	1913.58876159579	673.370397786207	141.004650252251	1269.02647828202	1013.01887237743	160.004650252251	1405.36908566019	1044.1141066624	129.881540282327	2298.38289819158	991.755738769112	148.422091604195	1425.14020135198	636.699811422393	127.881540282327	1140.40437489857	1096.07938735237	170.156463902523	1487.31030053576	864.314695195068	141.028429474207	1524.65130465933	1504.04736616868	185.030804303261	2162.23400145356	1316.34236057682	139.004650252251	2388.30416257663	775.099344141814	148.881540282327	1074.65730295227	674.651612931979	127.898917788843	1503.4141953534	985.09484848565	137.16128787806	1908.75967245952	367.45211015916	127.197768161837	959.125803470765	694.448818554206	177.536777859777	1124.25955271648
290.237540353814	140.679441039699	569.263157955544	1377.92385331843	227.878998263668	1911.65940160702	673.057766283342	141.001327222897	1267.24238568097	1012.07914575851	160.001327222897	1403.23675932135	1044.39277424985	129.886102621199	2295.97293292989	991.9471897085	148.506489406152	1423.855626609	636.792714074908	127.8861026212	1138.90588321548	1095.86207233019	170.149364352165	1485.09065840638	864.321772077375	141.013077025505	1523.59457928806	1503.33465630345	185.034406949354	2160.30142673011	1316.60884122336	139.001327222897	2386.64739761689	775.173786699484	148.886102621199	1074.21844477286	674.31445256495	127.917596325812	1500.44720984524	984.712314277239	137.224992385057	1906.89278593222	367.344600040119	127.23315730045	958.218613485759	694.290747812047	177.632403786447	1123.31122682079
290.276524897611	140.631897447376	568.988026346405	1377.00347711655	227.825743861233	1909.72071085913	672.767399242153	141	1265.48745155414	1011.19759887685	160	1401.19118810662	1044.7028810474	129.898917788843	2293.51079473947	992.184970737075	148.595390971154	1422.53693112697	636.908907866267	127.898917788843	1137.382109103	1095.73231323202	170.170611100238	1482.90975802225	864.33743582791	141.004650252251	1522.47516640447	1502.56342547106	185.053800476695	2158.30621523862	1316.84962083345	139	2384.98834119929	775.210441405703	148.898917788843	1073.74629677216	674.034856729875	127.938843073884	1497.84196642978	984.330535475035	137.297209540859	1905.28464321546	367.263261730966	127.269565884521	957.443853467656	694.171112632135	177.713052522677	1122.5352367962
290.333394411885	140.583356814205	568.73507615536	1376.1713993745	227.791422125483	1907.80811390734	672.483330865451	141	1263.76388196755	1010.35829774688	160	1399.24496124433	1045.05027956944	129.917596325812	2291.0806768676	992.466535450691	148.684091291949	1421.24894377622	637.045129360172	127.917596325812	1135.86882049017	1095.68982878632	170.21682266249	1480.8338748568	864.357947788905	141.001327222897	1521.24943675528	1501.7719046087	185.086263370969	2156.18689946306	1317.06793404335	139	2383.26168588434	775.224995909451	148.917596325812	1073.23398036439	673.785218702098	127.95927654881	1495.5260238537	983.943074648064	137.375743973492	1903.90296413509	367.202016891472	127.303355932119	956.768663621886	694.069257741852	177.774209448794	1121.87838122875
290.398719467077	140.540901093108	568.501226976388	1375.39831174065	227.778065483238	1905.92761992308	672.182736391712	141	1262.06191325453	1009.53863349784	160.001327222897	1397.401685204	1045.43551539165	129.938843073884	2288.7656370824	992.774640841678	148.767280714434	1420.0419469466	637.194558532884	127.938843073884	1134.39018358276	1095.72705451422	170.283181256141	1478.92506886963	864.384054608482	141	1519.88577677687	1501.02146891061	185.129104600526	2153.92354230255	1317.27318629488	139	2381.3960090189	775.236718428956	148.938843073884	1072.67195366341	673.545966692191	127.976220778044	1493.39358007106	983.555714154661	137.45814764768	1902.69465120858	367.154076655615	127.331702300122	956.140216581588	693.970336778496	177.816687837942	1121.27104307199
290.461794586094	140.509814473333	568.277859043007	1374.62957658254	227.781038741352	1904.0590323345	671.841994833434	141	1260.36194499191	1008.71601398004	160.004650252251	1395.65450794766	1045.85408408966	129.95927654881	2286.63355361597	993.077699167986	148.840016627161	1418.93965516262	637.347742214346	127.95927654881	1132.95620321833	1095.83056071057	170.364256028745	1477.23027985389	864.422338344429	141	1518.36466556507	1500.38496587703	185.179966415029	2151.53346265033	1317.47608370759	139	2379.31907435459	775.262779073939	148.95927654881	1072.0431500405	673.30568806549	127.988250197392	1491.32699838473	983.181766722305	137.54185235232	1901.594394192	367.111504790868	127.355833993091	955.49277558472	693.864917924326	177.844596121488	1120.63832166108
