Light	Light	Light	Light	Light	Light	Light	Light	Light	Light	Light	Light	Light	Light	Light	Light	Light	Light	Light	Light	Light	Light	Light	Light	Light	Light	Light	Light	Light	Light	Light	Light	Light	Light	Light	Light	Light	Light	Light	Light	Light	Light	Light	Light	Light	Light	Light	Light
Optode1-730nm	Optode1-Ambient	Optode1-850nm	Optode2-730nm	Optode2-Ambient	Optode2-850nm	Optode3-730nm	Optode3-Ambient	Optode3-850nm	Optode4-730nm	Optode4-Ambient	Optode4-850nm	Optode5-730nm	Optode5-Ambient	Optode5-850nm	Optode6-730nm	Optode6-Ambient	Optode6-850nm	Optode7-730nm	Optode7-Ambient	Optode7-850nm	Optode8-730nm	Optode8-Ambient	Optode8-850nm	Optode9-730nm	Optode9-Ambient	Optode9-850nm	Optode10-730nm	Optode10-Ambient	Optode10-850nm	Optode11-730nm	Optode11-Ambient	Optode11-850nm	Optode12-730nm	Optode12-Ambient	Optode12-850nm	Optode13-730nm	Optode13-Ambient	Optode13-850nm	Optode14-730nm	Optode14-Ambient	Optode14-850nm	Optode15-730nm	Optode15-Ambient	Optode15-850nm	Optode16-730nm	Optode16-Ambient	Optode16-850nm
417.393867625744	142.869790479719	811.68493792988	1320.54913779646	182.423042863408	2078.85754808367	1564.12906136695	143	2733.57944001805	1861.3146877714	159.143654075904	2988.68600728002	1351.50713549469	132.558685684462	2653.99215612095	1285.65815233638	148.259721205645	2044.50770527277	726.178605341087	130.011749802608	1310.62639354047	905.198244963517	145.306064029174	1209.92519887312	930.993675414811	143.576695278731	1689.98113255077	630.482168493182	159.937515850987	770.010222349101	1111.47870794334	155.206840867009	1789.14819475154	586.494412570782	147.701556711844	680.728605928998	1197.58883181845	144.220342132806	2286.00804721994	1308.8544566282	136.023779221956	2305.29175782065	971.944000844987	143	2047.58485020345	1097.21430940574	147.880125146052	1746.52349904941
417.080865455377	142.881452368949	810.575512528277	1318.50423124715	182.285366262651	2074.63553368726	1562.35623148219	143	2728.66844110913	1858.78167672257	159.114159236662	2982.31129345269	1351.80647456585	132.579499155251	2653.29605891458	1284.50323557228	148.214028330745	2041.04870678021	725.796012485847	130.023779221956	1309.26239911518	904.322592973638	145.329397625567	1207.65944822018	931.042625989583	143.55360771715	1689.34638549768	629.61854469405	159.917596325812	768.409888381336	1112.73226542774	155.232706867713	1790.10782467957	585.83252048416	147.689099577435	679.216807848109	1198.43451067645	144.253966033639	2286.27812025273	1307.82632124243	136.04072345119	2300.98482777233	970.831781487695	143	2043.4849135207	1095.55351063469	147.865140227468	1741.33713201362
416.681738903463	142.897590565946	809.128892565846	1315.80501277679	182.143560600305	2068.93180904327	1560.32165923609	143.001327222897	2722.99970836563	1855.84868570022	159.087053926439	2974.93695648973	1351.89837617915	132.603009278436	2651.93120270677	1283.22319150281	148.168216612421	2037.26794400902	725.333675126958	130.04072345119	1307.65110273566	903.310600536129	145.355833993091	1205.01267123815	931.153267112646	143.533689870663	1688.77618124745	628.773635608449	159.898917788843	766.743596777616	1114.09366288409	155.255158866772	1790.97798626745	585.260899065702	147.672583063262	677.78322981916	1199.2173495609	144.294661959979	2285.83034738267	1306.87647994883	136.061156926116	2296.30342140008	969.691928240036	143	2038.91355434104	1093.72058499925	147.849246373738	1735.35188526977
416.205257752453	142.917596325812	807.402244854755	1312.55388685875	182	2061.99222720636	1558.1150531318	143.005977475148	2716.83207123928	1852.64120617147	159.062484149013	2966.90880933621	1351.68535756547	132.627358867212	2649.69382202227	1281.83545277761	148.124454348275	2033.24873311674	724.751917659103	130.061156926116	1305.70885392026	902.159217295744	145.381104616456	1202.01377353746	931.241191977478	143.522889461011	1688.10478978188	627.965441853955	159.8861026212	765.061658431386	1115.39182792468	155.277115867616	1791.43871950455	584.807004299976	147.65471055853	676.496211990893	1199.76763101195	144.344250268879	2284.29668977761	1306.04027691761	136.082403674188	2291.45164922281	968.591841232344	143	2034.09993138084	1091.82902230435	147.82843764055	1728.92282681787
415.673650732163	142.938843073884	805.488848793206	1308.93378109514	181.855112176798	2054.20338938417	1555.8684233297	143.016400054859	2710.49412970724	1849.34296547002	159.04072345119	2958.66526851728	1351.10852880425	132.648033210638	2646.48421759396	1280.3846842771	148.084936148072	2029.11537657989	724.022757752914	130.082403674188	1303.38253274916	900.894605963417	145.402185148189	1198.74695181299	931.234197431144	143.525299204398	1687.20040520865	627.22845436611	159.881540282327	763.440867455475	1116.46948022755	155.302041127076	1791.23164722718	584.501555168889	147.637960402166	675.431973776382	1199.94055719351	144.403392437003	2281.44883218982	1305.3478872768	136.101082211157	2286.67672108252	967.597318771279	143	2029.31579705759	1090.00509426165	147.79798867075	1722.47495136484
415.122844808864	142.95927654881	803.515348256961	1305.18681676654	181.708656262201	2046.05613451441	1553.7442696521	143.035529024564	2704.35583976275	1846.18032188275	159.023779221956	2950.6938033549	1350.18159411282	132.662849281478	2642.38650165411	1278.95488910365	148.052473253798	2025.04522830595	723.152597468085	130.102409434054	1300.69509194934	899.585623540847	145.418725226942	1195.36339858557	931.102274773792	143.543191993071	1686.03224949999	626.616314664923	159.887429844096	761.983608564861	1117.23111275054	155.332067188989	1790.25301679227	584.385350604154	147.626381415555	674.672692538657	1199.65387925257	144.47119848074	2277.2757099589	1304.82546107861	136.115224601697	2282.23336865085	966.762443321981	143	2024.83208796975	1088.37073884392	147.755103196764	1716.4307709821
414.596388677927	142.976220778044	801.622958072649	1301.57569250877	181.560557081733	2038.06869139058	1551.90687725174	143.064502673146	2698.77953341614	1843.38018928403	159.011749802608	2943.45174242396	1348.99662914767	132.667937618185	2637.70812143903	1277.6625592358	148.028429474207	2021.27162334043	722.189077601503	130.118547631051	1297.77741628092	898.336555426331	145.433043240654	1192.07563579958	930.878582535461	143.57564706915	1684.71045742287	626.199471468929	159.904895263991	760.811557582621	1117.67017325918	155.368552985361	1788.60355708367	584.503689587855	147.624422104905	674.30162897464	1198.91931873762	144.545201574119	2272.04718978103	1304.50173921099	136.124437192821	2278.38317959453	966.12869225974	143	2020.90625675886	1087.02711556469	147.698210964814	1711.16535797187
414.136048644885	142.988250197392	799.953396536085	1298.34062139245	181.40989136885	2030.73464793537	1550.4865401461	143.101880377306	2694.0954620745	1841.13041325729	159.004650252251	2937.33490940087	1347.72123568548	132.662425041186	2632.95180070979	1276.64753675934	148.013077025505	2018.06292663578	721.22384719836	130.130209520281	1294.86550598261	897.279815474217	145.449982732287	1189.13490894374	930.654903216503	143.619842610578	1683.47956487739	626.054987371475	159.93399638067	760.046837545324	1117.87136880134	155.411796492582	1786.58051794812	584.900069784454	147.635570247969	674.389448578706	1197.84235186073	144.62171400785	2266.28587390745	1304.40191805918	136.131624656556	2275.36209283019	965.71787851861	143	2017.74752383563	1086.0382000457	147.630931336574	1706.95353660624
413.779265430408	142.995349747749	798.628117494887	1295.67536213083	181.257719836966	2024.46176616204	1549.57270632812	143.143560600305	2690.56709893127	1839.5642688812	159.001327222897	2932.63288406932	1346.57741947725	132.646108162104	2628.76621216827	1276.0554497352	148.004650252251	2015.70709188606	720.383514972974	130.137676600757	1292.28970568103	896.559340947325	145.474389234822	1186.81083646808	930.567618712489	143.670421040466	1682.67774769963	626.255601919682	159.975699321345	759.797307172551	1117.9899042242	155.461042961972	1784.62333351316	585.607179345876	147.660138346707	674.9815255039	1196.6084423744	144.696473182311	2260.68838316153	1304.54508990869	136.142588710868	2273.36261668303	965.534217226507	143	2015.50537017993	1085.42641500191	147.559859246816	1703.9498947592
413.550760420036	142.998672777103	797.73953804405	1293.70635638665	181.107510119041	2019.55111585321	1549.20111005843	143.183485885345	2688.39367348709	1838.74506130308	159	2929.54189682749	1345.80168819172	132.622527280995	2625.82884817738	1276.01841267731	148.001327222897	2014.47140040265	719.810531949723	130.141805662347	1290.42067585835	896.310160400289	145.509835153182	1185.35399233365	930.767883509424	143.720235248812	1682.6743592	626.858480822731	160.029756697104	760.148878707841	1118.21393503598	155.513420574248	1783.23019771382	586.638478299236	147.695955200381	676.092493520898	1195.44512955101	144.766494966138	2255.99609679577	1304.94415883698	136.16463362509	2272.51173045479	965.569712341504	143	2014.25785204847	1085.17831972747	147.493243394961	1702.18426377646
413.461521753125	143	797.33663232332	1292.48474426037	180.964297252149	2016.17031540736	1549.35381303961	143.214979589957	2687.68292015377	1838.66223208519	159	2928.14877461264	1345.60121489098	132.596487628914	2624.70198715249	1276.62916456312	148	2014.55175353947	719.635704447362	130.143560600305	1289.59561224029	896.634530813147	145.558702839916	1184.95316621982	931.382441377766	143.76395768508	1683.7882497626	627.89178241114	160.094501210209	761.152803688111	1118.71423009887	155.565002186297	1782.85183716428	587.981061240288	147.739196273865	677.702876018423	1194.57167750516	144.82843764055	2252.853270562	1305.5974157274	136.203216580237	2272.858255621	965.806134277131	143	2014.01748292305	1085.25034771205	147.439608996663	1701.58489525172
413.506450043804	143	797.419441017451	1291.99485262463	180.832914169514	2014.36246741797	1549.97114585133	143.232357096474	2688.44824571291	1839.24535312568	159	2928.43970948176	1346.11320785135	132.574319846253	2625.72645765742	1277.92259774671	148	2016.04022814421	719.952941455308	130.143560600305	1290.05305479234	897.585313745494	145.619409333295	1185.70522942172	932.486485795747	143.795445897043	1686.21458417561	629.350064075763	160.167339822261	762.819170657095	1119.60550348109	155.6125062239	1783.8000457686	589.596381733193	147.784854331646	679.759323815852	1194.15452750677	144.88074007835	2251.67836377311	1306.48599474956	136.261863750146	2274.35661765887	966.217555273846	143	2014.722648245	1085.58220627282	147.40551782605	1701.99784689779
413.667828519	143	797.942368061066	1292.16128977458	180.718669057301	2014.05324175308	1550.95848183197	143.232357096474	2690.5867702878	1840.370633172	159	2930.29130546484	1347.37382136916	132.560569499587	2628.94314862177	1279.85542275712	148	2018.87965571043	720.795725863021	130.141805662347	1291.8750424754	899.148957824081	145.688334459362	1187.59259313636	934.076955546064	143.811604308408	1689.97835212668	631.184621388349	160.24333830624	765.108893095112	1120.91430902071	155.64988392806	1786.18896897282	591.416019874359	147.828979115151	682.177729286838	1194.2703826496	144.922443019025	2252.60170278147	1307.56479607195	136.338902181711	2276.8754934334	966.766551509545	143	2016.2524203335	1086.1022544849	147.392252225669	1703.22354636037
413.917100731291	143	798.820792892464	1292.86541827808	180.624082303222	2015.07375614539	1552.19847016066	143.214979589957	2693.88444608381	1841.87981629707	159	2933.47247574646	1349.30596147784	132.555465686113	2634.09321948091	1282.30092793769	148	2022.86237088863	722.123997704537	130.137676600757	1294.96478580598	901.239333978321	145.759390608606	1190.47701642607	936.071048580556	143.811251837395	1694.91114594946	633.307192750213	160.316859967263	767.926505999773	1122.57688774731	155.674360984934	1789.91024721346	593.34545821964	147.86916109174	684.843111645576	1194.90285736074	144.953299073663	2255.46479861189	1308.7644180172	136.428740721816	2280.19801685934	967.404249816636	143	2018.42478481841	1086.73516258776	147.399095430761	1705.03838030309
414.22159488665	143	799.950691662956	1293.96777797596	180.549955216514	2017.19752875143	1553.56397044048	143.183485885345	2698.04379659808	1843.59954426813	159	2937.67444554628	1351.74191435635	132.556837270904	2640.68061247305	1285.06760015207	148	2027.64953792813	723.831998079507	130.130209520281	1299.06212731582	903.709588851791	145.826682702592	1194.11826765988	938.314599840385	143.796254363015	1700.68041300624	635.5928406905	160.380567949029	771.126323777361	1124.45027098618	155.685156656985	1794.66530515926	595.270939859249	147.904519300307	687.618421720563	1195.94525446524	144.974893555147	2259.85528015581	1309.98828134344	136.523156659897	2284.04176476836	968.06587897254	143	2021.01091764664	1087.40460635397	147.422336306602	1707.21601478845
414.547035136087	143	801.215787157622	1295.32638962952	180.493788344332	2020.15325881232	1554.93435538932	143.143560600305	2702.69132916442	1845.36504934115	159	2942.5161411033	1354.4411886879	132.558970038802	2648.06098595879	1287.91559600887	148	2032.81749189229	725.757158657893	130.118547631051	1303.78396833313	906.365603699663	145.885042597189	1198.20743042212	940.610385127706	143.76936275558	1706.82943435026	637.896691876194	160.427592784427	774.517029235336	1126.3465255711	155.683122102287	1800.01401421746	597.074192587072	147.934192821633	690.351657265097	1197.22848776226	144.988250197392	2265.20362132964	1311.12593010937	136.613297534418	2288.09023972254	968.676268685642	143	2023.75625919661	1088.03529073304	147.4564806231	1709.54224696513
414.865654828535	143	802.501748273372	1296.8159374127	180.453847166669	2023.65046148408	1556.20842531314	143.101880377306	2707.42074614732	1847.03968746127	159	2947.58473315712	1357.13969300996	132.554129173849	2655.55599195989	1290.59737517914	148	2037.91761077767	727.710629024228	130.102409434054	1308.68778515248	908.994197110091	145.930847074603	1202.41105956628	942.751723945515	143.735880485421	1712.8468188739	640.068678499005	160.455065624767	777.880657557058	1128.07281196256	155.672583063262	1805.44845382954	598.644297051043	147.957949325913	692.887748653048	1198.55986234521	144.995349747749	2270.87924197561	1312.07040720591	136.691805774605	2292.02745371631	969.161063195824	143	2026.40345555325	1088.561213138	147.497282377251	1711.82521792816
415.154424151814	143	803.704649122437	1298.33558038715	180.428048449119	2027.39115968914	1557.31182134942	143.064502673146	2711.83321307003	1848.52666661565	159	2952.47351450112	1359.58564846931	132.536516001916	2662.52663950991	1292.89220031076	148	2042.52533940256	729.504823331794	130.082403674188	1313.32578695077	911.392098531011	145.963143752539	1206.40665943108	944.553619578251	143.701818569705	1718.2371444963	641.972832510557	160.461216685259	780.995858121673	1129.46209972946	155.659360810781	1810.46669272731	599.893658390123	147.976220778044	695.081822114308	1199.75317823434	144.998672777103	2276.27935003504	1312.73220427497	136.755530911825	2295.5688713975	969.45356871303	143	2028.7160270677	1088.9276018145	147.539224098971	1713.89880611776
415.398975921412	143	804.728588272287	1299.80835827844	180.413390776422	2031.06772344539	1558.19785499246	143.035529024564	2715.55872415018	1849.77206990782	159	2956.80624390295	1361.5697338281	132.502106352788	2668.44919459353	1294.63133172601	148	2046.2969415968	730.976773313856	130.061156926116	1317.3080520429	913.387501945166	145.983599945141	1209.92315116057	945.878032060742	143.674275175026	1722.58123449602	643.502295135254	160.450151648399	783.659248695502	1130.39929033812	155.649710204774	1814.63087843278	600.764506352774	147.988250197392	696.812014494417	1200.65764558909	145	2280.89978314312	1313.05284262535	136.803872670298	2298.48719661873	969.507083972994	143	2030.49994231506	1089.09527631113	147.577902833583	1715.62669878622
415.589100624555	143	805.491517349393	1301.17351017633	180.407927251026	2034.37387732657	1558.84008751337	143.016400054859	2718.28881036704	1850.75381858018	159	2960.26649219507	1362.94763509897	132.4509387291	2672.95000283466	1295.71704120245	148	2049.00109649282	732.010266870462	130.04072345119	1320.34232518089	914.859917229377	145.994022524852	1212.76256173658	946.649062231222	143.659373228634	1725.58587929502	644.589247082954	160.427693115658	785.711549965859	1130.82993460574	155.650160637511	1817.61619751433	601.235721988968	147.995349747749	697.989755451595	1201.17710563467	145	2284.37816430566	1313.01170771615	136.840033782615	2300.62228746531	969.301670017114	143	2031.61624198293	1089.0440327525	147.60785597165	1716.90226953634
415.717162356524	143	805.92887172697	1302.37108592672	180.408586863629	2037.02187968531	1559.21757382747	143.005977475148	2719.80263599191	1851.46222905679	159	2962.62181924525	1363.64268391326	132.388296887365	2675.81776020028	1296.12293363006	148	2050.53233922862	732.541936900955	130.023779221956	1322.25720409592	915.745731189655	145.998672777103	1214.80882096489	946.853592189662	143.661910440119	1727.11020217307	645.206978888262	160.401544023446	787.051980203162	1130.75751951256	155.663818333198	1819.23639662851	601.319771539679	147.998672777103	698.568701821067	1201.2759496381	145	2286.51473916138	1312.62590464182	136.867048120547	2301.88250216484	968.84373455586	143	2031.99137447384	1088.7737362647	147.623906255269	1717.65097970855
415.77796987054	143	805.99472504163	1303.3416612836	180.412882141558	2038.75919794078	1559.31276766629	143.001327222897	2719.96527529628	1851.89194181644	159.001327222897	2963.72243622383	1363.64488378504	132.320471046923	2677.00340255842	1295.8842033641	148	2050.90824370677	732.562125687155	130.011749802608	1323.0092763639	916.037263516011	146	1216.02956214702	946.536144934698	143.683912006441	1727.16750673325	645.370409044785	160.377923151742	787.64856769549	1130.23297817381	155.692076921834	1819.45212002875	601.057877916949	148	698.549347000737	1200.97718322397	145	2287.2649516803	1311.94625213761	136.886962838548	2302.24281484566	968.169328984695	143	2031.61643000542	1088.30684320302	147.622123792461	1717.83323398541
415.76736079055	143	805.671389141279	1304.02785751173	180.417418634268	2039.41205608191	1559.1090224935	143	2718.75426161387	1852.03572659398	159.004650252251	2963.52517349151	1362.99374693161	132.255957032922	2676.57651810771	1295.07713163069	148	2050.23216629839	732.105348772554	130.004650252251	1322.66206506532	915.772840469021	146	1216.45648350352	945.780276086864	143.723863483927	1725.90531942978	645.125670344789	160.359867275216	787.536534364923	1129.33621067841	155.730792218287	1818.35847134687	600.511390054898	148	697.9792879944	1200.35187049348	145	2286.72006214394	1311.05074157278	136.898541825159	2301.74250064717	967.336401513601	143	2030.54706925024	1087.68765601237	147.598893286016	1717.45074443245
415.685201818768	143	804.974399224706	1304.38427190806	180.420226035183	2038.91461985987	1558.59926971531	143	2716.25513440796	1851.88822329891	159.011749802608	2962.09083049136	1361.77511039908	132.203768354661	2674.71875303499	1293.81185448844	148	2048.67655470014	731.244364565311	130.001327222897	1321.37062177082	915.031186941351	146	1216.17755090515	944.697601638287	143.775790663465	1723.57812532895	644.545084268925	160.346616664367	786.812773432581	1128.16593622913	155.773258189581	1816.16763413085	599.755648519998	148	696.952466757295	1199.50377118494	145	2285.07634153824	1310.03653587976	136.897336574172	2300.48087841336	966.420911774198	143	2028.89542403542	1086.98199791268	147.553781440436	1716.55163942906
415.535779886966	143	803.951990539436	1304.39176149731	180.418486086757	2037.33262551453	1557.79254823994	143	2712.66006522213	1851.45231613556	159.023779221956	2959.58142739936	1360.10268153504	132.169283877341	2671.6734180527	1292.20730723324	148	2046.43621951916	730.072800943077	130.001327222897	1319.34082346386	913.916236709322	146	1215.31315671119	943.405501819454	143.832660177739	1720.49964647128	643.714537462265	160.335566734504	785.61771304053	1126.82287426457	155.812370201476	1813.16802603273	598.869837048766	148	695.59683143973	1198.55007301706	144.998672777103	2282.61223275712	1309.00688072554	136.877046597908	2298.63090373079	965.504932978416	143	2026.83101963924	1086.26644136539	147.488837623921	1715.24423866061
415.331313918584	143	802.687454848065	1304.07213565118	180.409691783384	2034.86834541441	1556.72919303598	143	2708.25950442926	1850.7594814896	159.04072345119	2956.25597915951	1358.11687589021	132.157768407744	2667.74796319046	1290.39567658922	148	2043.71915883917	728.701251277767	130.005977475148	1316.81428935267	912.551957683525	146	1214.01306717982	942.015391040858	143.886369820086	1716.98966136316	642.72598365882	160.322995910128	784.111700342862	1125.4022917985	155.842157123203	1809.67207849869	597.930390675664	148	694.0547972945	1197.59873552494	144.995349747749	2279.63366411371	1308.05052253009	136.832833901026	2296.40680862169	964.661950971103	143	2024.55072046839	1085.61692500107	147.409803455472	1713.68008377832
415.090118156844	143	801.290902528787	1303.49153889022	180.392317751637	2031.84334332604	1555.48094653556	143	2703.42665887133	1849.86977044185	159.061156926116	2952.45348892421	1355.97869675232	132.169283877341	2663.28768490529	1288.517671997	148	2040.73418076003	727.244733449344	130.016400054859	1314.03837051873	911.072743374833	146	1212.44234904897	940.627055136603	143.930847074603	1713.34542406489	641.670290806561	160.306678961473	782.460786649092	1123.99138666087	155.859145596866	1805.9872258086	597.006915753831	148	692.471351455828	1196.73989171582	144.988250197392	2276.44591387956	1307.24227527067	136.763786869082	2294.05024179068	963.954387052108	143	2022.26573917544	1085.10262062234	147.323287875148	1712.04577086922
414.834427533551	142.998672777103	799.890053456477	1302.75680340736	180.364517665409	2028.65909506353	1554.14268118704	143	2698.58195949786	1848.86845540176	159.082403674188	2948.56307088324	1353.85863045038	132.202441131764	2658.65182986698	1286.71844799297	148	2037.68690750912	725.816642093535	130.035529024564	1311.24241294459	909.613691922926	146	1210.7681942846	939.318411585558	143.963143752539	1709.80326174082	640.629118029721	160.285371824873	780.813232833031	1122.66186368829	155.863183616592	1802.36986520453	596.158080479306	148	690.970834362489	1196.03153055251	144.976220778044	2273.31213893305	1306.62682367498	136.673127237637	2291.79067508324	963.419752970819	143	2020.16821168854	1084.77040495514	147.238491613027	1710.53192044325
414.588736512508	142.995349747749	798.606238840554	1302.00038045517	180.327945993485	2025.72032899745	1552.82532134308	143	2694.12600788096	1847.86064812725	159.101082211157	2944.95464726629	1351.92309508547	132.251306780671	2654.18822686348	1285.13786319351	148	2034.77434900063	724.518105857762	130.064502673146	1308.62068869135	908.298296730046	146	1209.14876566892	938.146141708473	143.982272722244	1706.519019447	639.669113283427	160.260803726135	779.284076504754	1121.46942958362	155.855298317939	1798.99854816648	595.428452140656	148	689.64414615831	1195.4987711893	144.95927654881	2270.42703949361	1306.21923717482	136.569652438548	2289.81102083113	963.072405296537	143	2018.40557278347	1084.64320567247	147.163306402193	1709.30198365737
414.37292469787	142.988250197392	797.542958330808	1301.35396549423	180.287214676209	2023.37907639307	1551.63353189394	143	2690.40288230053	1846.94660663348	159.113897378801	2941.9452427921	1350.31386429816	132.308721244315	2650.19348508529	1283.89699535086	148.001327222897	2032.17041721172	723.429910062155	130.101880377306	1306.31537552775	907.225715241002	146	1207.71652694511	937.142029802337	143.989372272602	1703.57591121339	638.837611342899	160.236473088894	777.952444377273	1120.44687276811	155.836710753261	1795.97903645151	594.844914003116	148	688.545410564077	1195.1350843165	144.938843073884	2267.90604393075	1306.00778675818	136.465876586016	2288.22119442598	962.903798147287	143	2017.06320469673	1084.71724803154	147.103990648725	1708.46517643523
414.201222673665	142.976220778044	796.76415427006	1300.92221037875	180.25114439824	2021.86236227272	1550.6478461627	143	2687.63601664972	1846.20302169504	159.11978694057	2939.73658864532	1349.1257017934	132.365844888306	2646.86581369475	1283.07589802636	148.004650252251	2030.00308378578	722.600806900497	130.143560600305	1304.3990192116	906.45710766281	146	1206.5590340807	936.310053940331	143.985595751598	1700.98789884012	638.15517125248	160.214831304068	776.854693061557	1119.60052088797	155.807195699652	1793.33944246619	594.412629231585	148	687.688418604332	1194.90938130352	144.917596325812	2265.78997642973	1305.95942316971	136.3735736887	2287.05475979736	962.886755581173	143	2016.16371325591	1084.96566250272	147.063100981196	1708.06841579007
414.076711615216	142.95927654881	796.283742502505	1300.76034088872	180.22920705616	2021.23627670799	1549.9111229625	143	2685.89568284591	1845.66857702298	159.119874853948	2938.38264179797	1348.3928800023	132.414865530161	2644.29927692851	1282.70201306906	148.011749802608	2028.35570358268	722.045106452661	130.183485885345	1302.88413859603	906.008592331549	146	1205.71746916858	935.631852126897	143.970243302896	1698.71924306524	637.619299213024	160.199095384734	775.990138379814	1118.91069674003	155.767280714434	1791.05394463728	594.118231967184	148	687.054144078195	1194.76833976698	144.898917788843	2264.05699439069	1306.01936903832	136.304674755078	2286.27167786067	962.975784397007	143	2015.66482750672	1085.33880111623	147.042833722609	1708.08982203589
413.99510155541	142.938843073884	796.071029729193	1300.86781735231	180.231918212128	2021.41269867071	1549.42538922356	143	2685.10218459485	1845.34025083509	159.118809488912	2937.79780880096	1348.08151300817	132.451372006383	2642.46379431405	1282.73782836851	148.025106444853	2027.23667078535	721.740223746318	130.214979589957	1301.72396016953	905.851668919722	146	1205.18042178608	935.069037394507	143.941549271054	1696.7089332093	637.203885826183	160.190149854555	775.329205529295	1118.33383579247	155.716912219458	1789.06335494458	593.928962205987	148	686.601134615175	1194.64781578304	144.886102621199	2262.65420683887	1306.12368718408	136.267297050918	2285.79759813961	963.116325997058	143	2015.49377669479	1085.77701403074	147.042833722609	1708.46808674204
413.945603597553	142.917596325812	796.056706517736	1301.19460904094	180.265969828021	2022.17729320639	1549.1568524658	143	2685.04595479065	1845.1830714753	159.1239101739	2937.78019222	1348.09177072348	132.471914074536	2641.22255515918	1283.08388331742	148.045373703441	2026.58461587142	721.629935202417	130.232357096474	1300.83066659521	905.916090075812	146	1204.89320439549	934.573502928011	143.897336574172	1694.87685637529	636.870097536572	160.18761264307	774.820454638578	1117.81323919158	155.657344014961	1787.28620852856	593.800942573348	148	686.269652422458	1194.4835978568	144.881540282327	2261.52351597121	1306.20765924751	136.26554211296	2285.55220619265	963.252394259938	143	2015.56596236848	1086.216321061	147.063100981196	1709.12271934207
413.917174123347	142.898917788843	796.1596459978	1301.66504955497	180.33364840366	2023.2693429692	1549.0511257474	143	2685.46554012708	1845.146073442	159.143386877018	2938.0916839295	1348.28123557738	132.476043136126	2640.38028730179	1283.60265992135	148.072906728724	2026.29050906107	721.63734732096	130.232357096474	1300.10386818373	906.107078692851	146	1204.77819701002	934.101804752785	143.83536637491	1693.15684684191	636.576888367703	160.188131330422	774.410137267494	1117.29265534955	155.592740359268	1785.65115290214	593.689108752368	148	686.001049671857	1194.2161268614	144.886102621199	2260.6059737609	1306.21216631375	136.29879075553	2285.46073436228	963.330238898452	143	2015.79586178641	1086.5990189651	147.103990648725	1709.96792757765
413.899794579003	142.8861026212	796.303248638913	1302.19667561024	180.430080362566	2024.44002357969	1549.04340587629	143	2686.09603687838	1845.17555755177	159.184110328208	2938.50573426883	1348.49213988428	132.464723086406	2639.72229738825	1284.14440318253	148.107510119041	2026.2200315342	721.680453714302	130.214979589957	1299.45134153303	906.325670234658	146	1204.75300859631	933.621793017138	143.756858134722	1691.51068707569	636.291529612	160.189463360493	774.053090412736	1116.72810898844	155.529151290499	1784.11143855187	593.558258758659	148	685.749179699633	1193.80909493441	144.898917788843	2259.86518112478	1306.10348014009	136.361977546635	2285.48380212881	963.314459358061	143	2016.12022205709	1086.88439141335	147.163306402193	1710.93563681421
413.888495209132	142.882867505224	796.429744572533	1302.72514688181	180.548280260205	2025.50046989671	1549.07458536378	143.001327222897	2686.71377637789	1845.23131646519	159.249569773162	2938.84891095999	1348.58022781697	132.439878499414	2639.06681532735	1284.57397943181	148.146455914597	2026.24440407563	721.68762969922	130.183485885345	1298.81362464416	906.485385008418	146	1204.75201313035	933.122499726434	143.666289545141	1689.94511487725	635.996852545025	160.190790583389	773.727497863033	1116.09817053067	155.474655899857	1782.66007734146	593.38934054518	148	685.492294380191	1193.25333223891	144.916269102915	2259.29810928205	1305.87925243772	136.445420393414	2285.63564452389	963.191451852908	143	2016.51230964632	1087.0559626924	147.238491613027	1711.98993399712
413.882779591846	142.89075287345	796.515074357187	1303.21941157695	180.676712124852	2026.36822794912	1549.10287690781	143.004650252251	2687.19498902032	1845.29885631076	159.338622564971	2939.05699320326	1348.44671959138	132.405241116599	2638.29798183027	1284.80361130462	148.188131330422	2026.26580703768	721.613655498059	130.144887823201	1298.17505755803	906.532376806371	146.001327222897	1204.73932844718	932.609889736189	143.57239479772	1688.51731768199	635.693508961186	160.192781582672	773.438957746348	1115.40129160656	155.437701103584	1781.33662200764	593.182108485956	148	685.237467873796	1192.56858392506	144.934192821633	2258.91717352743	1305.56833303295	136.538529322966	2285.95913179229	962.972238219923	143	2016.96877338437	1087.12140033169	147.323287875148	1713.11545186634
413.886190534578	142.910667591451	796.565502812768	1303.68042669451	180.803424671296	2027.05185031928	1549.10712205855	143.011749802608	2687.50350331908	1845.38619477426	159.445420393414	2939.15596088258	1348.05631291188	132.36532139378	2637.40013247053	1284.80518358642	148.230620088965	2026.24805185858	721.447091869589	130.106530629557	1297.57414279217	906.452348347414	146.004650252251	1204.721430407	932.108792446194	143.486838979748	1687.32955174169	635.398680133553	160.200689668575	773.219362901727	1114.65993265858	155.423825773987	1780.21964323528	592.953781196838	148	685.016571998724	1191.80273337006	144.946199523305	2258.74805613671	1305.22670217096	136.62855650752	2286.51279988751	962.689901356296	143	2017.50644323911	1087.11041174582	147.408476232575	1714.31160517422
413.902502676058	142.941375547768	796.610315876365	1304.13458431165	180.91777561132	2027.63442741183	1549.08357935187	143.023779221956	2687.68266181187	1845.51770083382	159.559229858837	2939.24722295451	1347.43815910533	132.325009627087	2636.43272180213	1284.60933703159	148.273430318903	2026.20648860497	721.211125455398	130.076252475754	1297.08273478373	906.268479998331	146.011749802608	1204.72922031378	931.65502034493	143.421917880908	1686.4952104092	635.139474777544	160.219906551658	773.110775066339	1113.90922011523	155.435946165626	1779.39690205348	592.734142051602	148.001327222897	684.874356787735	1191.02357648492	144.94646408094	2258.81786193791	1304.9276727935	136.70452746665	2287.34917702378	962.395191662856	143	2018.15278675441	1087.06863250973	147.48418737167	1715.58061665636
413.934446813408	142.979566525074	796.691975421453	1304.61546125048	181.012561175869	2028.23746580867	1549.03832332744	143.04072345119	2687.82935415901	1845.71965005332	159.668476985386	2939.47526372479	1346.66969793928	132.292015114233	2635.51721850435	1284.28834215451	148.317643015785	2026.20422564155	720.951618841971	130.05930824652	1296.78937407003	906.028454825623	146.023779221956	1204.80886405212	931.28452303399	143.387855965193	1686.11544397751	634.9442182718	160.256218890783	773.15226195608	1113.18953996664	155.470526838267	1778.94492985646	592.556524910235	148.005977475148	684.853988916442	1190.30122841614	144.929799468446	2259.13391977354	1304.73857261138	136.756482171038	2288.48286487926	962.14011426137	143	2018.92629163346	1087.04163408224	147.540704414931	1716.90939401811
413.982098998958	143.020433474926	796.850182078104	1305.14815817273	181.085986661519	2028.97131080274	1548.9808351703	143.061156926116	2688.04922253014	1846.00812298012	159.762459646186	2939.9748675758	1345.85123927381	132.270366088497	2634.79407096285	1283.93043159073	148.365497016952	2026.32576358158	720.722008452851	130.057123506049	1296.76991765714	905.786308885599	146.04072345119	1204.99826513049	931.024180799002	143.389096953399	1686.22885168581	634.832205027369	160.312844477645	773.357584756563	1112.53388920731	155.520356987127	1778.8835211378	592.447605233157	148.016400054859	684.976766290528	1189.69760875718	144.892686321921	2259.66808125474	1304.70846799503	136.779056142007	2289.86772822509	961.971816325165	143	2019.82083275411	1087.06752254915	147.570463811809	1718.25770759917
414.04072345119	143.058624452232	797.106014198198	1305.73104813574	181.139700903524	2029.89379850124	1548.91146333903	143.082403674188	2688.41854258375	1846.37462052076	159.832833901026	2940.82484689362	1345.07663107984	132.264495478263	2634.36925523342	1283.61312088931	148.419523393091	2026.64006089172	720.56512078361	130.067134401264	1297.05572038823	905.582313205183	146.061156926116	1205.30286837045	930.879133042268	143.423558713043	1686.79004256949	634.805065573024	160.388029688479	773.70213624172	1111.95608626023	155.576428217787	1779.16124844883	592.419605561464	148.035529024564	685.232704464576	1189.24715381392	144.83536637491	2260.34541118792	1304.84940623628	136.770863701764	2291.38956017089	961.915354089858	143	2020.79474571864	1087.16034126903	147.569650538663	1719.55294958718
414.102837149115	143.089332408549	797.458550260975	1306.33334475593	181.180040884081	2030.9973677965	1548.82231676962	143.101082211157	2688.9709409196	1846.78530472932	159.877046597908	2942.0320413767	1344.40792169507	132.275197674714	2634.28145425445	1283.38421008654	148.481493592353	2027.17684755217	720.499539504688	130.083730897085	1297.61709444309	905.429655282146	146.082403674188	1205.68538611238	930.827803017083	143.48282081525	1687.65084827153	634.84211913091	160.475516117206	774.116103651342	1111.44460491482	155.628128792459	1779.63600156555	592.46445200877	148.064502673146	685.570772797881	1188.94557192311	144.760181164076	2261.03650378371	1305.12464999959	136.73640194212	2292.86481184874	961.965065308109	143	2021.76027083595	1087.30285915199	147.538970107197	1720.69028997873
414.159706663389	143.10924712655	797.877849167251	1306.90679878809	181.214473250886	2032.20114116139	1548.70112731331	143.1138973788	2689.67232861101	1847.19077096947	159.897336574172	2943.50551149402	1343.85960859552	132.300461812289	2634.48005266431	1283.24754885601	148.550188153284	2027.90854298003	720.510704126047	130.101082211157	1298.35611277265	905.308083471562	146.101082211157	1206.06517485032	930.819426308194	143.553457531376	1688.58360187716	634.898730666073	160.565281803037	774.49400740326	1110.96123197054	155.66714976249	1780.0999961135	592.554474790131	148.101880377306	685.911348048865	1188.75633819263	144.673389095498	2261.57943821335	1305.4685074735	136.685418514846	2294.08105051293	962.091104723158	143	2022.60037241402	1087.45507511453	147.484728846271	1721.55267330734
414.203229787349	143.117132494776	798.312703636231	1307.39574391934	181.248769569186	2033.37521218302	1548.53510688685	143.118459717673	2690.43620513363	1847.53517184534	159.899869048056	2945.07959573691	1343.39745906834	132.335444762594	2634.81213505878	1283.16623150523	148.622923996438	2028.73154663917	720.554631357963	130.1138973788	1299.11585233937	905.167726651983	146.113897378801	1206.32582239528	930.782099751967	143.620374367099	1689.30806194362	634.914939959333	160.643370540533	774.709615218198	1110.44786227819	155.687583237416	1780.30130141995	592.644078138373	148.143560600305	686.154970387085	1188.61476756696	144.584424217068	2261.79105881615	1305.79121200481	136.630919995718	2294.82635861689	962.242234950738	143	2023.18027255918	1087.56039918601	147.416990919207	1722.02746195719
414.227706844223	143.1138973788	798.702138575265	1307.75830795907	181.285607836572	2034.37976658303	1548.32025482922	143.1138973788	2691.1479825949	1847.77426102628	159.891613090799	2946.55064052066	1342.95417357422	132.373211499607	2635.07139669524	1283.07780703867	148.693935970826	2029.49807923562	720.5688682794	130.118459717673	1299.71587778732	904.945724817537	146.118459717673	1206.34997924775	930.641273593368	143.671001848591	1689.55452601451	634.82966928496	160.696629750143	774.647518941786	1109.84406797114	155.685426021794	1780.00538341982	592.681121316232	148.183485885345	686.208443874105	1188.45182964904	144.503783208982	2261.5029703017	1306.01348483974	136.587392134157	2294.92658730598	962.366156596759	143	2023.37064434026	1087.56824114649	147.34890052113	1722.02569105414
414.231029873577	143.101082211157	798.991504595751	1307.98256160568	181.324747373317	2035.10773710077	1548.06778446639	143.101082211157	2691.70156997399	1847.88812851214	159.880125146052	2947.72914645407	1342.45397624509	132.406551184042	2635.04676165809	1282.9167571763	148.756858134722	2030.05011900191	720.492114157313	130.1138973788	1299.99530521166	904.588389074813	146.113897378801	1206.05077197869	930.334540224614	143.697979690716	1689.11900013406	634.595002282809	160.715880691758	774.229474960962	1109.10158516456	155.661110374085	1779.04177971721	592.617987286959	148.214979589957	686.003446755353	1188.21358377591	144.442351355835	2260.60024733951	1306.08359083684	136.565478481213	2294.2876459672	962.421117992616	143	2023.08006732339	1087.44679078991	147.29414050328	1721.5079436729
414.216306812854	143.082403674188	799.144335722024	1308.08890344492	181.364540383085	2035.51017817972	1547.80314005272	143.082403674188	2692.0204755419	1847.88666746084	159.869790479719	2948.47812843621	1341.84134163005	132.430335143599	2634.58322329324	1282.63817523694	148.806392726328	2030.26204966051	720.283356454141	130.101082211157	1299.85212215753	904.070848076126	146.101082211157	1205.40214837313	929.833185167731	143.698755139189	1687.92253590251	634.191014315963	160.69795697304	773.440832226135	1108.20511051735	155.617854311069	1777.36211900998	592.424333464993	148.232357096474	685.519540055739	1187.87880659394	144.409102713265	2259.05934231712	1305.99312227565	136.571341850538	2292.92044947349	962.389058387361	143	2022.27887606418	1087.19759160973	147.264214890063	1720.49781015356
414.188136137596	143.061156926116	799.154796211998	1308.12594703246	181.401371875044	2035.61478637007	1547.55955266478	143.061156926116	2692.08527783996	1847.8054873264	159.862323399243	2948.74924458236	1341.10963689278	132.44320709099	2633.639611483	1282.24003633097	148.840829900306	2030.08040134235	719.938385715922	130.082403674188	1299.27782765321	903.41726485839	146.082403674188	1204.45925328793	929.151088182241	143.679011237185	1686.04360812782	633.635219113726	160.648020792784	772.341773978	1107.17998175471	155.563880111087	1775.06831058749	592.094312458397	148.232357096474	684.791669049286	1187.46710265389	144.409102713265	2256.97338616975	1305.77839037976	136.605403766254	2290.95548510099	962.281489528411	143	2021.02014823525	1086.85774883009	147.267297050918	1719.09389534787
414.15663762581	143.04072345119	799.047884183264	1308.1651717575	181.434368425724	2035.51662023108	1547.37936269187	143.04072345119	2691.93337349231	1847.70841338392	159.858194337653	2948.59037210079	1340.30735353781	132.448935056557	2632.31120389762	1281.76548217895	148.860472819763	2029.5429131494	719.493882609189	130.061156926116	1298.36769559054	902.699416508417	146.061156926116	1203.35547425893	928.35049697984	143.646708025568	1683.71212901267	632.982808367685	160.578358828542	771.061386148217	1106.09866897968	155.509120093237	1772.40872435927	591.651457038531	148.214979589957	683.905451313073	1187.0354701839	144.442351355835	2254.55672260737	1305.50948988589	136.660566061768	2288.62820317075	962.134146141604	143	2019.44441545819	1086.49394859627	147.303347532181	1717.46398878536
414.13163707441	143.023779221956	798.875006214951	1308.27548267147	181.46375119697	2035.35368903089	1547.29620606296	143.023779221956	2691.65011114181	1847.66167484964	159.856439399695	2948.13481973296	1339.53123989008	132.453059380546	2630.8204738633	1281.29601368956	148.86916109174	2028.78137513038	719.020798318952	130.04072345119	1297.30456561517	902.024682870506	146.04072345119	1202.28080295178	927.532741315203	143.612127352927	1681.28168193618	632.318715684232	160.505272814309	769.779148862025	1105.0695394301	155.465078281925	1769.75083289983	591.14644079697	148.183485885345	682.985969473918	1186.66018625925	144.503783208982	2252.10752983265	1305.26529227168	136.726927714332	2286.23234952511	961.993426026255	143	2017.75111323762	1086.18203081388	147.36892343645	1715.81569327197
414.122953402092	143.011749802608	798.704399485501	1308.51310104226	181.492445228812	2035.28167828442	1547.3286602154	143.011749802608	2691.35893792217	1847.72380430583	159.856439399695	2947.57692034355	1338.90242406041	132.461487832488	2629.47118558452	1280.93038488459	148.873025595694	2027.99225063826	718.610098901812	130.023779221956	1296.32191086684	901.514647967798	146.023779221956	1201.44268051099	926.822058205615	143.583807246942	1679.16396397645	631.742003346679	160.445153194528	768.690986726334	1104.22094057957	155.442351355835	1767.51494597251	590.647443271055	148.143560600305	682.175029960463	1186.42648421696	144.583096994171	2249.97370811895	1305.12439842475	136.790889120392	2284.08742914655	961.910913794804	143	2016.18308154595	1085.99948050266	147.454126783408	1714.37807915555
414.138192450392	143.004650252251	798.600519383994	1308.90301629142	181.523954826047	2035.42405203203	1547.4743605061	143.004650252251	2691.17461537831	1847.9281000186	159.858194337653	2947.11174600684	1338.53456471117	132.47926722076	2628.57478444577	1280.75726202134	148.876890030076	2027.3890726851	718.348174349036	130.011749802608	1295.65214353735	901.274890301153	146.011749802608	1201.02009508436	926.336996448655	143.566005500134	1677.74718232066	631.345475762544	160.410857651223	767.97134776895	1103.67390862334	155.446480417425	1766.09523807238	590.226354191439	148.103207600203	681.603617983717	1186.40465101774	144.668738843248	2248.48390470595	1305.14319871488	136.84126067428	2282.47856178648	961.928922704844	143	2014.97871728047	1086.00386821282	147.547200439489	1713.35958324936
414.179706457052	143.001327222897	798.614313441238	1309.4379496714	181.561355247883	2035.85739515876	1547.71226205585	143.001327222897	2691.20187581231	1848.27851441065	159.862323399243	2946.91322437911	1338.50581616041	132.506063369779	2628.3837191053	1280.83545388475	148.884775398303	2027.1555314516	718.299287812764	130.004650252251	1295.47728577054	901.370825522508	146.004650252251	1201.12620968387	926.167539657253	143.559579630076	1677.32009629381	631.196027500355	160.409102713265	767.741999885076	1103.51566496712	155.479756584845	1765.78287985293	589.943747305471	148.069152925397	681.368251807144	1186.62756247625	144.748431361468	2247.87718651907	1305.33892368705	136.869947047551	2281.59565609781	962.065386907218	143	2014.32345057831	1086.21898881973	147.637054038698	1712.9088167156
414.245796311071	143	798.766830844811	1310.07689914197	181.606355025466	2036.58231765722	1548.00758570039	143	2691.49519069613	1848.74784858786	159.869790479719	2947.07846856001	1338.84684010207	132.539310333661	2629.02800911203	1281.18666087002	148.898917788843	2027.40276384699	718.492224991808	130.001327222897	1295.88726535773	901.817371283699	146.001327222897	1201.78365616532	926.352247619998	143.563882148914	1678.01276005245	631.319873976773	160.440596417877	768.045379397242	1103.77986065954	155.538783314741	1766.70258187578	589.836014221342	148.047278827172	681.512982176623	1187.09414626149	144.812914375851	2248.26090853874	1305.70076347113	136.874884575113	2281.50884780973	962.321234269915	143	2014.31903283408	1086.637690252	147.714379745574	1713.09619242386
414.329265350296	143	799.044601551994	1310.76359831061	181.659785051073	2037.52173789815	1548.32635153932	143	2692.04346294743	1849.29560424948	159.881452368949	2947.60395058545	1339.52619242535	132.57204502648	2630.47429821883	1281.78284643887	148.917596325812	2028.13421393893	718.911140466028	130	1296.85540666225	902.570324853748	146	1202.91508607952	926.869373583606	143.576957136592	1679.7707352692	631.696140196222	160.499654147392	768.840305291519	1104.43520739828	155.616353364885	1768.78760871168	589.908661781348	148.040179276815	682.02307308683	1187.76278436218	144.856613122982	2249.59671796852	1306.19050202581	136.859145596866	2282.17081678151	962.676604901239	143	2014.97399084009	1087.2246369691	147.774209448794	1713.90758670555
414.42155325808	143	799.402304430957	1311.44059634828	181.719190514	2038.54810681003	1548.64604503391	143	2692.77856985578	1849.88016230029	159.897590565946	2948.39794333032	1340.4624945771	132.599155143877	2632.52988424486	1282.559621716	148.938843073884	2029.24411433946	719.502215138387	130	1298.24379049643	903.540494784118	146	1204.36145093733	927.638689853856	143.597499204746	1682.36358260734	632.261102807831	160.575629913695	770.009455341752	1105.38800751605	155.701556711844	1771.78575760851	590.136033527258	148.046700926337	682.826367079473	1188.56161195767	144.880392344938	2251.70208824835	1306.75552056067	136.83178338758	2283.42872245666	963.099879422778	143	2016.20024907364	1087.92693538928	147.816687837942	1715.25097926419
414.512616845877	143	799.775901086984	1312.05989050585	181.780985090091	2039.51206190881	1548.95659834431	143	2693.592217654	1850.46773588468	159.917596325812	2949.30747970233	1341.53765790829	132.615026279931	2634.90458131568	1283.42534735123	148.95927654881	2030.55442868839	720.183155120652	130	1299.84285703728	904.608035070423	146	1205.92462737514	928.542821351708	143.625059754879	1685.43725488377	632.92407539889	160.657076954018	771.387692775382	1106.50422328956	155.782636222048	1775.3138313046	590.468923964214	148.062484149013	683.810517283991	1189.4085949722	144.887839628708	2254.29694527586	1307.3458436243	136.802371724114	2285.06873005037	963.557585260561	143	2017.8421219061	1088.68920991712	147.844596121488	1716.98301850521
414.593177668729	143	800.098311205877	1312.59003882472	181.840039344837	2040.28504186724	1549.25791195799	143	2694.36795382923	1851.03507954727	159.938843073884	2950.16760312792	1342.61960283159	132.617854311069	2637.26562195591	1284.27886438813	148.976220778044	2031.85189479486	720.860103423971	130	1301.41452367917	905.647423735605	146	1207.40476487584	929.449884197718	143.659785051073	1688.57735758533	633.586342340376	160.73229316447	772.79232949009	1107.63337008306	155.849513572625	1778.92571989829	590.846098918764	148.082403674188	684.842113516337	1190.22320853308	144.885840763338	2257.06149721504	1307.91980059418	136.78045807117	2286.86217596229	964.019531995297	143.001327222897	2019.71272374558	1089.46215637828	147.863813004571	1718.93954295141
414.655399959881	143	800.315750104198	1313.01635785228	181.892142147546	2040.79048747015	1549.54910809232	143	2695.01638486856	1851.5660607215	159.95927654881	2950.85133335466	1343.58966319108	132.608636982345	2639.33561302217	1285.03152881103	148.988250197392	2032.95758367236	721.448131021379	130	1302.75272401553	906.552171777004	146	1208.65043228936	930.24159199707	143.701813007484	1691.4031231149	634.164053233384	160.792908615986	774.065179062098	1108.64138469527	155.895318050039	1782.21282095654	591.211019699887	148.101082211157	685.795801505441	1190.93762533421	144.881452368949	2259.68972677257	1308.44669288681	136.772205242399	2288.60055256472	964.461355934158	143.004650252251	2021.62380030553	1090.20513704338	147.881452368949	1720.95758859514
414.692777664042	143	800.400544698262	1313.33316161655	181.934170103957	2041.0142325868	1549.81809461373	143	2695.48430730557	1852.038437616	159.976220778044	2951.29013956799	1344.35820796383	132.590740718903	2640.94242523421	1285.61935381631	148.995349747749	2033.76608149608	721.882934718738	130	1303.7228371549	907.250176388088	146	1209.58167914661	930.831104324263	143.749491385479	1693.62502622021	634.5987757449	160.83536637491	775.093694108608	1109.42665186325	155.917770049098	1784.86614561301	591.518317374361	148.113897378801	686.574632357302	1191.50891791407	144.88021305943	2261.94264578924	1308.91285396277	136.779130848273	2290.1289878677	964.868854024255	143.011749802608	2023.42034501561	1090.89347861197	147.902240818197	1722.90214836549
414.699882021573	143	800.350487905541	1313.53725347151	181.964470975436	2040.99799860828	1550.03436137042	143	2695.75197124291	1852.42221974855	159.988250197392	2951.47550436613	1344.88188071938	132.568866690252	2642.03605592378	1286.01383170628	148.998672777103	2034.25321576043	722.133316554175	130	1304.27597079633	907.713581375911	146	1210.1921706271	931.174154140013	143.800114059796	1695.0946733392	634.866409784679	160.858631647115	775.828199341516	1109.93598439822	155.921115796128	1786.7296274063	591.74078555816	148.118459717673	687.126305502869	1191.91642580864	144.886102621199	2263.68317007971	1309.31447612948	136.799048694761	2291.36821952952	965.232870621443	143.023779221956	2025.00219728346	1091.51119938494	147.92934612842	1724.67854981083
414.673725201216	143	800.189786287923	1313.62614744751	181.983599945141	2040.82367385056	1550.15456262306	143	2695.83452987433	1852.67900130686	159.995349747749	2951.45474421877	1345.15369023295	132.547738785604	2642.66626123615	1286.21418361989	149	2034.46237767465	722.198141977353	130	1304.44260020051	907.952249111822	146	1210.53089665057	931.267741801756	143.849134701651	1695.80013383351	634.973618646303	160.866245147224	776.273169165151	1110.16190057355	155.910291627767	1787.79421367196	591.868607180218	148.113897378801	687.440207143811	1192.15483004356	144.898917788843	2264.87231872996	1309.64766945334	136.826011060119	2292.29850938527	965.543846920839	143.04072345119	2026.32054474408	1092.04384300221	147.96262229584	1726.22767206259
414.612828095134	143	799.957567986742	1313.59462974071	181.994022524852	2040.57890371077	1550.12785275743	143	2695.75631505592	1852.76748665009	159.998672777103	2951.2996666957	1345.20148208011	132.529818195371	2642.94390357471	1286.24870089391	148.998672777103	2034.47766482084	722.103456140611	130	1304.30786774485	908.005657322038	146	1210.67634999309	931.144527038375	143.892142147546	1695.85173997726	634.948528557015	160.860734318485	776.477080529486	1110.13696834856	155.891613090799	1788.17868990845	591.907753354448	148.101082211157	687.546538611851	1192.23979278137	144.917596325812	2265.57236295037	1309.91761120623	136.853093652666	2292.95937102596	965.797026099506	143.061156926116	2027.38173281129	1092.4838262884	148	1727.52780483047
414.517461501263	143	799.696445775826	1313.43352128157	181.998672777103	2040.33247221966	1549.9084674243	143	2695.54669489202	1852.64984640081	160	2951.08313861251	1345.06804265322	132.515555508069	2642.98207672005	1286.15572862257	148.995349747749	2034.38179205208	721.891426105971	130	1303.97745933841	907.924491563483	146	1210.70101470929	930.86012672783	143.923747524246	1695.43176608622	634.831911911874	160.844596121488	776.506843282332	1109.92013015434	155.869702566341	1788.0730305112	591.874562400632	148.082403674188	687.499047474991	1192.19790920242	144.938843073884	2265.9081091846	1310.12885926319	136.874340400738	2293.42282235161	965.987147342483	143.082403674188	2028.22862956642	1092.82337874192	148.03737770416	1728.58198919912
414.391273204393	143	799.440515756039	1313.13579708911	182	2040.10833459642	1549.47041254444	143	2695.21775694528	1852.30763193256	160	2950.84792162033	1344.79692530984	132.504900684533	2642.87536559354	1285.97253515079	148.988250197392	2034.23927597717	721.60723620865	130	1303.55566679596	907.754977621921	146	1210.65970984738	930.480762295208	143.94069175348	1694.74727608889	634.665829395225	160.819766524028	776.430212238851	1109.5828163958	155.846011257763	1787.6887490398	591.791581393089	148.061156926116	687.360958385918	1192.06662905146	144.95927654881	2266.03799287255	1310.29029421362	136.886369820086	2293.76854587398	966.112609755465	143.101082211157	2028.92050665819	1093.05967736221	148.07065387158	1729.40714024909
414.239549367383	143	799.209886111669	1312.70177293135	182	2039.8839702634	1548.82101092458	143.001327222897	2694.77317867951	1851.75342339081	160	2950.604245418	1344.43111055222	132.495099315467	2642.67774065923	1285.73545454261	148.976220778044	2034.08112963334	721.294115934511	130	1303.12669266771	907.534390810236	146	1210.57665528282	930.069334121421	143.941549271054	1693.98306093483	634.485526874479	160.786762224725	776.299715408148	1109.19341250601	155.821599948054	1787.20732202275	591.68313799491	148.04072345119	687.191743753118	1191.8860438732	144.976220778044	2266.11584601893	1310.41159542489	136.889166851605	2294.06472715911	966.173849923392	143.1138973788	2029.51478516034	1093.19244032579	148.096431958906	1730.02821206526
414.072108562575	143	799.008392566149	1312.14668727526	182	2039.59739898975	1548.00766833398	143.004650252251	2694.20422989158	1851.03875699158	160	2950.3271645137	1344.00311872145	132.484444491931	2642.40626509597	1285.47215799222	148.95927654881	2033.9113431879	720.986558559202	130	1302.74619850792	907.284543311321	146	1210.45258206184	929.681119678312	143.928215346486	1693.28188135712	634.316592502339	160.747361189258	776.149693464308	1108.81149158102	155.797037411537	1786.76396401959	591.573622766383	148.023779221956	687.038380614016	1191.69614399645	144.988250197392	2266.25710818197	1310.50345976813	136.885840763338	2294.34777961853	966.174102808491	143.118459717673	2030.0464466449	1093.2272768045	148.112570155904	1730.46725237758
413.898917788843	143	798.826117848368	1311.50104429095	182	2039.17234399234	1547.10839972296	143.011749802608	2693.50204844111	1850.24590364147	160	2949.97010632251	1343.53962341524	132.471509027526	2642.06222371215	1285.2057357127	148.938843073884	2033.71973366198	720.706579315067	130.001327222897	1302.44652900474	907.016301451941	146	1210.27607427997	929.35415296151	143.904519300307	1692.73123226956	634.174084315365	160.702883934741	775.995822634763	1108.47838500664	155.774035725507	1786.43337805153	591.483229799973	148.011749802608	686.931150186673	1191.53380065688	144.995349747749	2266.52214694308	1310.58126437662	136.881452368949	2294.62312104783	966.124267903888	143.1138973788	2030.52170795547	1093.17971455374	148.118459717673	1730.7425702964
413.731590384436	143.001327222897	798.647463881312	1310.81225846811	182.001327222897	2038.55035079697	1546.22357925676	143.025106444853	2692.67024540985	1849.48045642774	160	2949.48864760366	1343.05997748671	132.456911466647	2641.64999456656	1284.9541829721	148.917596325812	2033.49734762919	720.464706923213	130.004650252251	1302.24546152618	906.732583533686	146	1210.03953692074	929.110573786771	143.87381134399	1692.37363162789	634.062556806821	160.656278649926	775.843946863719	1108.21737161521	155.755357188539	1786.24723387585	591.427257706081	148.004650252251	686.88589192146	1191.42321775233	144.998672777103	2266.92484196424	1310.65526093632	136.88021305943	2294.88160530514	966.034354535591	143.101082211157	2030.93040106559	1093.06830234548	148.113897378801	1730.87890526345
413.579506765931	143.004650252251	798.45504779093	1310.13479602898	182.005977475148	2037.70954323646	1545.45133232835	143.045373703441	2691.72966833144	1848.84576929449	160	2948.85847402267	1342.58138564436	132.441555889459	2641.19406902551	1284.73252561433	148.898917788843	2033.24846312409	720.263368447306	130.011749802608	1302.15406829289	906.43561913111	146	1209.74982313887	928.953693254635	143.839401694862	1692.21974327572	633.979129215612	160.610630019455	775.698276447746	1108.03232346673	155.744296958853	1786.20777881486	591.411205384635	148.001327222897	686.904311756093	1191.37323169971	145	2267.42935209419	1310.72972923198	136.8861026212	2295.09966087249	965.913830049619	143.082403674188	2031.24587948782	1092.91250282672	148.101082211157	1730.90031150661
413.450782936263	143.011749802608	798.238406537365	1309.52599984687	182.016400054859	2036.6827474067	1544.87189619981	143.072906728724	2690.73048549979	1848.42656561966	160	2948.09548820812	1342.12429150748	132.427061027905	2640.75467019749	1284.55758322731	148.8861026212	2033.00290598659	720.102442896281	130.023779221956	1302.18714820962	906.13411032418	146	1209.43579349649	928.874925510077	143.803983301352	1692.26036314796	633.916403492678	160.569786828311	775.564209279142	1107.91660573308	155.742536458673	1786.30503975073	591.433426109596	148	686.977063757908	1191.38061857734	145	2267.98656641327	1310.80170773716	136.898917788843	2295.26602002132	965.770631417211	143.061156926116	2031.45280321178	1092.73070613217	148.082403674188	1730.84520651265
413.349250292369	143.023779221956	797.994872431748	1309.03292086764	182.035529024564	2035.55127691438	1544.52943678914	143.106182896144	2689.73490386467	1848.26755983189	160	2947.24708138145	1341.71443610768	132.415686413986	2640.41562226843	1284.44569379967	148.881540282327	2032.80965611051	719.980806209748	130.04072345119	1302.36123922726	905.844531300942	146	1209.14462794289	928.853999750095	143.76684269955	1692.48196412151	633.863813004571	160.535550968112	775.452788657265	1107.8539997501	155.749915625771	1786.53076191978	591.482351109928	148	687.088388004968	1191.43098467758	145	2268.54190215978	1310.86182227133	136.916269102915	2295.37616362556	965.61198503324	143.04072345119	2031.5467771117	1092.53881110563	148.061156926116	1730.75504387411
413.276338756471	143.04072345119	797.730779800433	1308.68928826265	182.065829896043	2034.4309176418	1544.42843733691	143.141805662347	2688.80675796659	1848.36940579984	160	2946.38241981773	1341.37753895342	132.406446367586	2640.26109058596	1284.40726422613	148.886102621199	2032.71990007871	719.89981237151	130.061156926116	1302.68391698694	905.588042014417	146	1208.92576546666	928.866346301342	143.72868265229	1692.86292267035	633.809644997758	160.510353840534	775.375829235888	1107.82599330124	155.763970102933	1786.87659562161	591.539895741444	148	687.217243003232	1191.50367718743	145	2269.05676311757	1310.89502410583	136.934192821633	2295.44112876097	965.441726912972	143.023779221956	2031.54499618922	1092.34704641726	148.04072345119	1730.67465201212
413.230446365678	143.061156926116	797.456570332559	1308.50612808425	182.107857852454	2033.44497004219	1544.53254729632	143.175054304917	2687.98885772106	1848.68505515512	160	2945.56861479646	1341.14130170205	132.398224468861	2640.34929539136	1284.44923799796	148.897590565946	2032.77112742159	719.861897466602	130.082403674188	1303.14497786022	905.387336556952	146	1208.81740192191	928.887674325307	143.6887415442	1693.36286135468	633.74245388632	160.493681479418	775.336667031093	1107.81767603415	155.778330644297	1787.31817895248	591.583797736378	148	687.336719571728	1191.58025059264	144.998672777103	2269.50890139274	1310.89000230282	136.946199523305	2295.47851206037	965.265157206191	143.011749802608	2031.47848256372	1092.1643368529	148.023779221956	1730.64481140024
413.20787713231	143.082403674188	797.187988606754	1308.47753206436	182.159960655163	2032.70774158607	1544.77935648473	143.200863391861	2687.30662445129	1849.1403459731	160	2944.86867303824	1341.01819916007	132.388296887365	2640.68156557282	1284.56236179401	148.912946073561	2032.9629340152	719.865919663279	130.101082211157	1303.70654705262	905.255016616678	146	1208.83055465046	928.895955700014	143.648393281699	1693.92277771465	633.65162649779	160.484013648384	775.327557218598	1107.81751287672	155.787286474299	1787.81474613891	591.593297740755	148	687.419882626055	1191.64726231303	144.995349747749	2269.88974340104	1310.84064538368	136.947791303837	2295.50230079369	965.089949995779	143.004650252251	2031.38263108743	1091.99949551202	148.011749802608	1730.69083871231
413.202418414088	143.101082211157	796.938455940915	1308.57623287682	182.219014909909	2032.29692936008	1545.08988758108	143.214979589957	2686.75863981466	1849.64086438995	160	2944.32373672512	1341.00816435272	132.374512530059	2641.20082649846	1284.72907095716	148.925766048379	2033.26206237885	719.907603361046	130.1138973788	1304.30551641424	905.192251726036	146	1208.94505228607	928.873614665814	143.60809280797	1694.45303026708	633.528413137722	160.476826184648	775.324135744216	1107.82036620076	155.783162219883	1788.29192191174	591.551915650228	148	687.434698545272	1191.69505588011	144.988250197392	2270.19136920377	1310.74604486961	136.935776943594	2295.51172414425	964.921463263502	143.001327222897	2031.28150951561	1091.85811408997	148.004650252251	1730.81564632908
413.206858022464	143.1138973788	796.71945818646	1308.76006179928	182.279482263103	2032.24381389522	1545.38174604145	143.214979589957	2686.33461835646	1850.09332421437	159.998672777103	2943.9601024509	1341.09135019663	132.354940047477	2641.80340640931	1284.92079353691	148.929519851706	2033.60732797871	719.974456245686	130.118459717673	1304.86451921153	905.182333377996	146	1209.1152654392	928.810772413993	143.570572576607	1694.85066640958	633.369142055481	160.468971816041	775.291452988608	1107.82791618385	155.763507252343	1788.65939157252	591.453282737178	148	687.3570682264	1191.72331086887	144.976220778044	2270.40194576023	1310.6157856322	136.910413599677	2295.48938511213	964.767275373409	143	2031.18269498137	1091.74629772411	148.001327222897	1730.99922810257
413.211646260781	143.118459717673	796.531869767581	1308.97288554898	182.33423747378	2032.51630228496	1545.58029512534	143.200863391861	2685.999688913	1850.41460147624	159.994022524852	2943.76780046655	1341.23002309865	132.331697492948	2642.34201588323	1285.10225689031	148.919097271995	2033.91191950117	720.04844274102	130.1138973788	1305.2992353188	905.196659155797	146	1209.27489284406	928.699506057889	143.538612498744	1695.01337909315	633.173473090245	160.457430153999	775.191439049776	1107.84176795241	155.728511836293	1788.82385571929	591.297984752119	148.001327222897	687.172298673573	1191.73243968486	144.95927654881	2270.50554318567	1310.46534691216	136.875545651725	2295.40873854858	964.632088770846	143	2031.0792316722	1091.66761779541	148	1731.20632331081
413.207267807075	143.1138973788	796.365908850021	1309.15750511289	182.375917696778	2033.02502271703	1545.63179112434	143.175054304917	2685.71065553411	1850.55147936634	159.983599945141	2943.7119322542	1341.37628507527	132.307054219735	2642.65418530202	1285.23661597126	148.891564246711	2034.07894717277	720.108523429453	130.101082211157	1305.53240030838	905.199968809195	146	1209.35169027806	928.533676471179	143.515817365931	1694.85791794967	632.945416474783	160.44288791953	774.992912353174	1107.86062950203	155.683684207112	1788.70779080409	591.095387052523	148.004650252251	686.878573831004	1191.72459129613	144.938843073884	2270.47440512717	1310.31484302377	136.837760862727	2295.23586110082	964.519267544138	143	2030.9441002652	1091.62247514434	148	1731.38637135255
413.18487042184	143.09975498826	796.199584445572	1309.26072681674	182.398465475302	2033.63139434291	1545.50850071698	143.141805662347	2685.40723543647	1850.48154369264	159.963143752539	2943.72623343721	1341.47254543426	132.28747653407	2642.57824014273	1285.28816790717	148.848443400415	2034.01435833074	720.130867497232	130.082403674188	1305.50273230418	905.155697232635	146	1209.27979597661	928.307697024047	143.505945231777	1694.33711121882	632.692162731743	160.428388250802	774.677755334888	1107.87545588725	155.637211080104	1788.26551850588	590.85772489837	148.011749802608	686.489289947207	1191.6964339614	144.916269102915	2270.27208406905	1310.18155968841	136.803698947011	2294.93291039204	964.427947107433	143	2030.73692931974	1091.60513160857	148	1731.4845724296
413.136881134381	143.077753421938	796.002000306844	1309.23873174601	182.399792698199	2034.17255868651	1545.20843087453	143.106182896144	2685.02310610004	1850.21495252405	159.930847074603	2943.72643141536	1341.46437895106	132.277893353916	2641.97471835571	1285.23069666951	148.79571018864	2033.63720606213	720.094760571833	130.061156926116	1305.16952338303	905.0351045919	146	1209.00910699131	928.016676571938	143.510708814856	1693.45644587426	632.424370086305	160.417677413269	774.25234463905	1107.86925562354	155.599426291106	1787.49875054012	590.599600014393	148.023779221956	686.033338218619	1191.64305372076	144.894267536593	2269.86744746432	1310.07977453497	136.78045807117	2294.47603089467	964.354561176503	143	2030.41799118827	1091.60630353832	148	1731.45178881239
413.05955855599	143.049407123508	795.737302721593	1309.06850051294	182.381895171926	2034.4832589051	1544.75691524079	143.072906728724	2684.48217761679	1849.79122871454	159.886369820086	2943.61152935345	1341.30246029823	132.283865316468	2640.74662280619	1285.044413249	148.741214797998	2032.89440584695	719.983517776769	130.04072345119	1304.5187234989	904.818884151679	146	1208.51376273708	927.658728955437	143.529840913047	1692.27254734584	632.153760612642	160.415681676386	773.742184776918	1107.81923378498	155.575642331549	1786.4558595079	590.33512871962	148.04072345119	685.549889944147	1191.54916751242	144.874352818591	2269.23849084781	1310.00836778097	136.772205242399	2293.85326398056	964.287255959242	143	2029.95025152033	1091.60709122245	148	1731.24953787038
412.953159187711	143.016944229234	795.376634345871	1308.75370771803	182.351964751535	2034.43509306824	1544.20494137387	143.045373703441	2683.72709090368	1849.27864830657	159.832660177739	2943.30176974573	1340.96252360253	132.305386874106	2638.86319094051	1284.7306207004	148.692076921834	2031.7734845993	719.792030181349	130.023779221956	1303.5696131397	904.507208093072	146	1207.80038365165	927.238495877054	143.561095427849	1690.89397721663	631.893648893165	160.423418827092	773.195361559414	1107.70374598238	155.568542711618	1785.23286698049	590.078570594634	148.061156926116	685.085151832795	1191.40236727141	144.857761060371	2268.39689941783	1309.95738933558	136.78045807117	2293.08316540586	964.212721925639	143	2029.3207309217	1091.58688468446	148	1730.86809930584
412.822551207266	142.983055770766	794.903818251293	1308.32350994371	182.319661539918	2033.95822050604	1543.61694130485	143.025106444853	2682.72929748444	1848.7555090135	159.775790663465	2942.74783613546	1340.44807485165	132.339600016629	2636.37250993186	1284.31075522883	148.654722976384	2030.31091156874	719.530246699691	130.011749802608	1302.37450710657	904.119233255631	146	1206.90619277083	926.772442867977	143.600192450212	1689.46795553709	631.661297358913	160.441009281349	772.673988424158	1107.5138397892	155.576171388296	1783.96268272278	589.845564254953	148.082403674188	684.686653627225	1191.19305578879	144.84537917001	2267.39966705508	1309.90669133336	136.803698947011	2292.22199177722	964.116298873853	143.001327222897	2028.55294165562	1091.52503749814	148	1730.3338198808
412.679121868239	142.950592876492	794.32678847596	1307.83733385309	182.29659460856	2033.06693724175	1543.0721692583	143.011749802608	2681.50997421692	1848.31060125386	159.723863483927	2941.96076659416	1339.79434386192	132.380917720268	2633.41933155408	1283.82435297592	148.631031667805	2028.60336786191	719.221748375622	130.004650252251	1301.02592467104	903.690668374252	146	1205.90415434187	926.286600820007	143.6430486693	1688.15843959434	631.473624392957	160.467994364383	772.245758848608	1107.25418572877	155.593641545792	1782.79603780742	589.651374377076	148.101082211157	684.397033931569	1190.92624891119	144.837760862727	2266.34032178178	1309.84008970536	136.837760862727	2291.34625579812	963.989938311187	143.004650252251	2027.69654946022	1091.41175876815	148	1729.70163048645
412.536246103256	142.922246578062	793.681055509062	1307.37015797954	182.291597729573	2031.86795675277	1542.64459286085	143.004650252251	2680.15310141541	1848.02085268398	159.685239229338	2941.02431837226	1339.07006703244	132.422170228205	2630.23391347981	1283.33040915656	148.620736556192	2026.79984839773	718.906054325823	130.001327222897	1299.64825952943	903.274433587898	146	1204.89159023562	925.815930606757	143.685418514846	1687.12640416551	631.3473347544	160.501932629501	771.973766538819	1106.94831805672	155.616069148487	1781.88554078234	589.510794249657	148.113897378801	684.251297136163	1190.6215847844	144.835192651623	2265.34206259669	1309.75030304121	136.875545651725	2290.54909983862	963.834830066622	143.011749802608	2026.82561768823	1091.25102281968	148	1729.05178711041
412.409888461561	142.90024501174	793.023570666387	1307.0056099876	182.309869181704	2030.53820978737	1542.39638189731	143.001327222897	2678.78444214239	1847.9466062126	159.66656069237	2940.07481399075	1338.35929899406	132.45734948153	2627.09820742379	1282.89179226545	148.62198310662	2025.07746288866	718.629188787645	130	1298.37964114246	902.926786710041	146	1203.9764968978	925.397715667229	143.725600491435	1686.49506787227	631.295835289923	160.54211460609	771.903902278288	1106.6325249691	155.63999270089	1781.35300821815	589.435383287951	148.118459717673	684.268140089744	1190.31177846749	144.837760862727	2264.52734328734	1309.64441960897	136.910413599677	2289.91423323892	963.662333027862	143.023779221956	2026.01879214705	1091.06237971784	148	1728.46966882495
412.314405062093	142.8861026212	792.423799773914	1306.81655587345	182.351979207216	2029.29235151994	1542.36726827631	143	2677.55767358483	1848.11884374076	159.671123031242	2939.28035216555	1337.75344490637	132.483663877144	2624.30588822578	1282.56822762058	148.632230063161	2023.61218192757	718.435852127351	130	1297.35234873596	902.698846659431	146	1203.25817704187	925.062922944257	143.761386415063	1686.31803959399	631.323455523163	160.586332110146	772.04997846306	1106.34511891148	155.664171766774	1781.2581871731	589.427617857347	148.113897378801	684.441778465177	1190.03323264737	144.84537917001	2263.97861267557	1309.53771713241	136.935776943594	2289.47901830434	963.490584966614	143.04072345119	2025.32844309018	1090.87555868668	148	1728.01665280828
412.2586133786	142.881540282327	791.94575474235	1306.84707616334	182.413815016715	2028.32700013543	1542.55774143911	143	2676.60292159381	1848.5270334828	159.698054396982	2938.78575910542	1337.3247321116	132.499822358082	2622.09836639939	1282.39972538185	148.647847069497	2022.53907343062	718.357518687448	130	1296.65911276333	902.623488515469	146	1202.80282520813	924.826786182277	143.790538745729	1686.56537839826	631.420747699417	160.631355576866	772.386876495675	1106.11465349441	155.688217225053	1781.58045123023	589.47937215165	148.101082211157	684.739287997643	1189.80904132035	144.857761060371	2263.70874385684	1309.4425163001	136.947791303837	2289.21544324802	963.333798230295	143.061156926116	2024.76342325063	1090.71674208538	148	1727.71175562509
412.244723079949	142.886102621199	791.626520581841	1307.10281603644	182.488575987256	2027.75805452417	1542.93246554549	143.001327222897	2675.97576332203	1849.12411160863	159.742542020895	2938.65206943904	1337.11223207578	132.505446537596	2620.60391503204	1282.39545242823	148.665412754981	2021.91368652967	718.40164065813	130	1296.3231139789	902.702885518941	146	1202.61891074763	924.677735835258	143.811339750773	1687.10582478539	631.5601561453	160.67233592712	772.842373964275	1105.9431708071	155.713754513453	1782.19855178506	589.567086917487	148.082403674188	685.095977946763	1189.64252002402	144.874352818591	2263.64047385972	1309.36214798543	136.946199523305	2289.02133192176	963.199684948375	143.082403674188	2024.28093628944	1090.60148296359	148	1727.51626340648
412.266514002396	142.898917788843	791.462135497179	1307.53509645001	182.564945476123	2027.57589796843	1543.4095261018	143.004650252251	2675.61610696313	1849.81387249779	159.79571018864	2938.81267672961	1337.10450524799	132.501035425531	2619.77917722443	1282.52411320242	148.680762700374	2021.67452553504	718.544201247796	130	1296.26859292483	902.901240491874	146	1202.63380447682	924.575392380779	143.820816899532	1687.70624104588	631.693859743342	160.703334633516	773.294227924551	1105.79869669688	155.738951571458	1782.8817939222	589.651757317879	148.061156926116	685.414893693107	1189.50745764842	144.894267536593	2263.59959927495	1309.27892121364	136.934192821633	2288.72223515994	963.081424371438	143.101082211157	2023.78327484139	1090.52357538676	148	1727.32982629004
412.30781826171	142.917596325812	791.400570313496	1308.04236719413	182.631882595786	2027.62390725436	1543.87232481623	143.011749802608	2675.3329870377	1850.46555423634	159.847116177518	2939.06131396062	1337.23087931621	132.486317567891	2619.39120169491	1282.70728700557	148.689280156353	2021.63476629204	718.723670091707	130	1296.31341532826	903.138984016778	145.998672777103	1202.6895222801	924.446761834339	143.815360615045	1688.04608752028	631.754827636173	160.716556885998	773.576480909195	1105.60853396606	155.762192447299	1783.29858805234	589.679558411511	148.04072345119	685.570836353079	1189.34831652824	144.914941880018	2263.33292326621	1309.15564181049	136.916269102915	2288.09833373177	962.959101843893	143.1138973788	2023.13509223463	1090.45505143603	148	1727.00371767029
412.346585239967	142.938843073884	791.347566370931	1308.48009325907	182.679702676363	2027.60596384815	1544.18324479667	143.023779221956	2674.82073649704	1850.92832170439	159.885586771564	2939.06818648822	1337.36688282211	132.460426129789	2619.02737816262	1282.8301295103	148.686390404282	2021.49369410863	718.846650576236	130	1296.17605878556	903.299945731267	145.994022524852	1202.54709249343	924.194141706096	143.793338418499	1687.74260016745	631.660459076343	160.70707504753	773.48994861156	1105.26543829906	155.779310133781	1783.0392331279	589.586889563494	148.023779221956	685.418681310705	1189.08696861312	144.932865598736	2262.53290260162	1308.93478691309	136.897590565946	2286.90805257712	962.799564747933	143.118459717673	2022.17778916015	1090.34360730985	147.998672777103	1726.35308058258
412.353954758557	142.95927654881	791.179824077662	1308.67095225043	182.699882021573	2027.11712225504	1544.19688532803	143.04072345119	2673.69850065726	1851.04322136432	159.901369994239	2938.42431425513	1337.35272583587	132.422506951028	2618.14219020644	1282.76040113294	148.667149762489	2020.87097798243	718.797879785441	130	1295.5064081027	903.243704164032	145.983599945141	1201.90877402218	923.708239243042	143.75244875097	1686.40207112588	631.323802052457	160.671001848591	772.825724555265	1104.64263960889	155.784632028505	1781.66896059634	589.309895364541	148.011749802608	684.810627926361	1188.63522950411	144.941549271054	2260.8794527785	1308.55328992818	136.881452368949	2284.92153143489	962.563001769112	143.1138973788	2020.75207547872	1090.12554405069	147.995349747749	1725.18140428903
412.299895482914	142.976220778044	790.766376693849	1308.43573098035	182.686800188894	2025.70592278649	1543.78516635766	143.061156926116	2671.57587171606	1850.67399108292	159.888013351995	2936.712522444	1337.01489951007	132.373618584445	2616.13695446913	1282.36636866709	148.629321625592	2019.36153153876	718.457600233165	130	1293.93459088967	902.825756999727	145.963143752539	1200.45814220411	922.884569651727	143.693560712563	1683.68367678724	630.663526776714	160.607297341594	771.395759116605	1103.6134854732	155.774209448794	1778.79847665303	588.794482287034	148.004650252251	683.622147751901	1187.91309297974	144.934714278332	2258.09757867304	1307.95758261265	136.868463256822	2281.96837909291	962.214752276639	143.101082211157	2018.7290795179	1089.73831292171	147.986922974495	1723.31714051145
412.155181382999	142.988250197392	789.989675112099	1307.61811462394	182.637672682126	2022.93985632133	1542.85638073348	143.082403674188	2668.1130139453	1849.72497469595	159.844863320374	2933.56731276224	1336.19980957809	132.315110541901	2612.46047443561	1281.54402631288	148.571246860331	2016.5996660829	717.723620701937	130	1291.13081191449	901.922607696981	145.929519851706	1197.90648058297	921.639129474006	143.619181533966	1679.35143405338	629.61614761831	160.517723359125	769.060566021953	1102.07286561961	155.743781109217	1774.14763088865	588.002648339113	148.001327222897	681.768132774108	1186.86330437815	144.907347469387	2254.01258084311	1307.11561492043	136.857673146993	2277.9784344751	961.729011127361	143.082403674188	2016.04018201636	1089.1321065998	147.971570525793	1720.64861994409
411.900551572974	142.995349747749	788.76957256162	1306.11243197091	182.551671169018	2018.48443256113	1541.37022046006	143.101082211157	2663.102009635	1848.16143618929	159.774209448794	2928.75753130838	1334.80295366698	132.250620286609	2606.70782498392	1280.23822282029	148.494727185691	2012.32201473227	716.532308917256	130	1286.86471533277	900.455660222702	145.880392344938	1194.04577877839	919.927957308926	143.534752801963	1673.32872223061	628.149701370896	160.406642808549	765.759332453225	1099.96133322722	155.693039521903	1767.61024758888	586.923564924932	148	679.226896346347	1185.47110192499	144.857940345879	2248.58169431023	1306.03329460068	136.846444535045	2272.99227536007	961.103389515892	143.061156926116	2012.68730502948	1088.28630907186	147.947526746202	1717.14220056142
411.525676523556	142.998672777103	787.075925100993	1303.88119515888	182.430386894975	2012.16165403344	1539.34637835394	143.1138973788	2656.50335241134	1846.01203007754	159.683549817348	2922.22708620324	1332.78309246822	132.186938497288	2598.701878371	1278.44976345016	148.406568339496	2006.42255046043	714.869951726704	130.001327222897	1281.05430751943	898.407400770544	145.816260122881	1188.79187000917	917.757757534485	143.449196914418	1665.72303436276	626.273390877306	160.279388787504	761.526463706772	1097.28106418778	155.623994168647	1759.29054004652	585.576607658992	148	676.050968813874	1183.76976811264	144.789282280756	2241.92342446182	1304.76027828121	136.832660177739	2267.17573610134	960.359508131355	143.04072345119	2008.75847802146	1087.21610099922	147.915063851928	1712.86425361862
411.037886505792	143.001327222897	784.933108088376	1300.9696251429	182.278166381062	2003.98199260052	1536.86923974684	143.11978694057	2648.45597494103	1843.37671134225	159.58433630369	2914.10264931199	1330.17699713591	132.130309851513	2588.55253878297	1276.24113323445	148.315122959755	1998.99237018378	712.782094340931	130.004650252251	1273.79664433621	895.832793314593	145.738934416004	1182.21657701728	915.192281029869	143.372679743086	1656.82419180784	624.041804113058	160.143560600305	756.498028977589	1094.1024098168	155.541764438942	1749.50438613038	584.013650785625	148	672.36647524826	1181.84594654807	144.708656262201	2234.30316732226	1303.38861922154	136.814388725609	2260.79977081866	959.54552200841	143.023779221956	2004.41300073966	1085.97625639958	147.875545651725	1707.97121073672
410.459539829065	143.004650252251	782.416486084135	1297.50502953568	182.102147576192	1994.15793401337	1534.08209829246	143.118547631051	2639.27031681131	1840.41500028135	159.486143844604	2904.69142918545	1327.09141662142	132.088002278362	2576.64098141216	1273.72451181944	148.231562878667	1990.30649873879	710.365283790838	130.011749802608	1265.35994031279	892.852115959796	145.653383335633	1174.54668996917	912.347489881292	143.315734984764	1647.06227971845	621.553422958522	160.005977475148	750.894214557618	1090.56051096049	155.45225808591	1738.73612485375	582.312029955931	148	668.357594234865	1179.81878663056	144.625059754879	2226.09569361914	1302.03299225783	136.792387159287	2254.19581332287	958.724367992707	143.011749802608	1999.85511218218	1084.64739451963	147.833110610476	1702.68835297568
409.826682702592	143.011749802608	779.637604924153	1293.68161733553	181.912946073561	1983.06845530082	1531.16811795454	143.112832013765	2629.36903496801	1837.3263408272	159.399779491087	2894.41935447434	1323.69575146408	132.065285721668	2563.58058274382	1271.05451401191	148.165838876077	1980.79836548792	707.75913105461	130.023779221956	1256.15697997791	889.643308627277	145.565631574276	1166.14389053455	909.379958816165	143.285975587886	1636.95954040136	618.943584935478	159.872839454554	745.000310023566	1086.84117550142	155.362928805848	1727.58108754156	580.569792627746	148	664.24650051561	1177.8272783347	144.54730077072	2217.73346914006	1300.8123993432	136.768169922447	2247.71332561537	957.963547444076	143.004650252251	1995.30672807287	1083.32399552742	147.791949144403	1697.27792234814
409.183566153833	143.023779221956	776.729673570026	1289.73842941414	181.721209038133	1971.21771131724	1528.32795359563	143.106182896144	2619.22800397063	1834.32144436396	159.333300670248	2883.77453121583	1320.20018710852	132.063100981196	2550.11952856362	1268.40736079885	148.122953402092	1970.99392543337	705.128048321321	130.04072345119	1246.6859782963	886.419072842819	145.481493592353	1157.45491101215	906.467665514205	143.28854379899	1627.05353064575	616.367901015381	159.75148998481	739.126133374338	1083.15720726238	155.278531003891	1716.65702762955	578.891676318706	148	660.261215450012	1176.0022031719	144.482183165276	2209.64297991967	1299.82549292786	136.744929046606	2241.66523018103	957.319199451885	143.001327222897	1990.9694490796	1082.0950072708	147.755351626317	1691.99686763992
408.575317553026	143.04072345119	773.829675791088	1285.93393067413	181.538783314741	1959.17487868348	1525.75536701289	143.101880377306	2609.3141372056	1831.60235281502	159.291170014512	2873.24538455425	1316.83231470284	132.080211426769	2537.03893689312	1265.96024226624	148.102663425828	1961.44027588558	702.640586333384	130.061156926116	1237.46929462935	883.4016740533	145.405407194996	1148.95506858554	903.782857170987	143.323353292047	1617.84003367018	613.983968102972	159.646110061989	733.571502770961	1079.71738655675	155.203745636985	1706.5313337916	577.376689839786	148	656.610596565567	1174.45042183478	144.434382881404	2202.18510494759	1299.13757735713	136.726831538958	2236.29065127692	956.83077568823	143	1986.99808549818	1081.030500323	147.725504316062	1687.06321261419
408.041803730316	143.059829703219	771.062245207809	1282.50530087682	181.372246465803	1947.50820526575	1523.60190925878	143.101880377306	2600.02912568203	1829.3220824564	159.273684310677	2863.26298853186	1313.8079376077	132.112160371292	2525.03170674201	1263.86953341816	148.100130951944	1952.62058790873	700.448106635914	130.082403674188	1228.97695691669	880.793727337696	145.339687930007	1141.08047107813	901.470252052938	143.386388856344	1609.71123757581	611.931735937084	159.561705019122	728.592717090254	1076.70090751465	155.142181626031	1697.64747892447	576.104442357441	148	653.458470273424	1173.2396634496	144.405067393312	2195.63344266357	1298.7694706686	136.717973922157	2231.75376679178	956.51311551699	143	1983.50348390736	1080.17257375171	147.702901090195	1682.64523676303
407.612199662666	143.077753421938	768.531276010798	1279.64690000716	181.227117774103	1936.73168669863	1521.9688822492	143.106182896144	2591.68177151893	1827.57892384985	159.277898916138	2854.17572530461	1311.30909437767	132.153555464955	2514.63387864728	1262.255126519	148.107059686304	1944.90748481343	698.669923421725	130.101082211157	1221.581412228	878.756349136893	145.284394373215	1134.1821877277	899.629821930037	143.470438924889	1602.92160278805	610.316977452392	159.501517282668	724.374237339774	1074.23324810712	155.095563875471	1690.28231430187	575.127478526784	148	650.907594646545	1172.39752146127	144.39214402835	2190.13213509167	1298.70635005651	136.721295272823	2228.11216130345	956.361617334139	143	1980.52698400454	1079.53660398079	147.685766248259	1678.83341792213
407.303228122542	143.089332408549	766.313497744864	1277.49302869433	181.103990648725	1927.25704888397	1520.89820282141	143.112832013765	2584.47393262193	1826.4117766603	159.298536763756	2846.22646849702	1309.46763215071	132.20016074977	2506.18328524846	1261.19301509175	148.116551824594	1938.53741735824	697.381283673944	130.1138973788	1215.52518177011	877.393820401556	145.237807552701	1128.49731284892	898.310598113731	143.565090099675	1597.58462860828	609.202211204529	159.4663999426	721.021432398523	1072.3808189004	155.065550279303	1684.54487406737	574.467138215888	148	648.997750193992	1171.91421166902	144.393123517835	2185.7096322627	1298.90323026688	136.73667865157	2225.34098828737	956.35557385945	143	1978.05818924459	1079.11361325585	147.672175978424	1675.65097762103
407.118770126564	143.090118156844	764.45511560733	1276.11108750267	181.00194405508	1919.36377752304	1520.3785267328	143.118547631051	2578.49566859201	1825.80723346212	159.327487694661	2839.54774157176	1308.35474070886	132.247564318199	2499.79294224467	1260.71099506576	148.124437192821	1933.59278744005	696.610649532228	130.118459717673	1210.90286171443	876.746296229764	145.197343921545	1124.13250491442	897.510791341392	143.660312069993	1593.67958972913	608.604957236042	159.456379640553	718.561903323808	1071.15184920378	155.052208696163	1680.38998600584	574.11733133129	148	647.714127497012	1171.75616718058	144.404269227163	2182.29781331941	1299.30607918709	136.762975495821	2223.34906515113	956.470587740607	143	1976.0463640915	1078.88425873012	147.661095118515	1673.06444825453
407.055079047876	143.077736266483	762.973340580403	1275.5115024219	180.91970659723	1913.19240294359	1520.36556637851	143.11978694057	2573.7409460993	1825.71974756096	159.357501017671	2834.16824487829	1307.98717575916	132.292536570932	2495.39395695454	1260.79559825076	148.130297433659	1930.03522720752	696.344726784016	130.1138973788	1207.68025242313	876.796461475111	145.160598305138	1121.07898305949	897.190944860062	143.745108332114	1591.08643965709	608.501238282058	159.467470869857	716.959120796528	1070.5068049164	155.053800476695	1677.66505897344	574.048355653575	148	647.000819602315	1171.87977478285	144.422968394355	2179.76962358636	1299.86514526959	136.796604134255	2222.01590950014	956.685336765428	143	1974.4215777909	1078.82717645748	147.65304353395	1671.01046599221
407.101147665264	143.052740452684	761.862615376949	1275.65370159747	180.85681536338	1908.76554263203	1520.78806966538	143.1138973788	2570.13298168548	1826.08010540983	159.383646635115	2830.03791837705	1308.32334274369	132.334239511607	2492.78580046534	1261.39252772803	148.137938458618	1927.73874389701	696.534273675446	130.102409434054	1205.72541842471	877.479778918365	145.127515878907	1119.24364521561	897.284953945716	143.811587152954	1589.61970578639	608.838944482182	159.494553462404	716.134446007509	1070.37847606279	155.065807178367	1676.1560108921	574.218993178667	148	646.780242036502	1172.24057254252	144.447087417994	2177.99213150857	1300.54491793718	136.832302144505	2221.23759458194	956.986454820088	143	1973.12845762221	1078.9271723909	147.650143482056	1669.43144289344
407.245379908041	143.018678536968	761.102858617246	1276.4696631809	180.814326674409	1906.02236347689	1521.57452501908	143.101082211157	2567.56140333933	1826.82223126106	159.402158955744	2827.06311354421	1309.28676947033	132.371098528415	2491.7031251846	1262.42456550955	148.151556599585	1926.53274047023	697.108696135023	130.087053926439	1204.85134799933	878.703554200797	145.098803729047	1118.48596428831	897.716490844732	143.856613122982	1589.06788809567	609.548995229634	159.53167134653	715.989160303228	1070.68734107634	155.085058119982	1675.63729834529	574.58357046154	148	646.970359723464	1172.79829566637	144.475516117206	2176.86580740179	1301.3213272547	136.864510839489	2220.95616013688	957.365339611069	143	1972.14523793799	1079.17331038055	147.654181501782	1668.29990376344
407.475641188777	142.981321463032	760.67150606327	1277.87249280733	180.794862319572	1904.86471472076	1522.65368452124	143.082403674188	2565.92519690899	1827.87913527076	159.412773944239	2825.15253032298	1310.7762937644	132.402581863631	2491.88789111237	1263.80366559032	148.17478710603	1926.25454291624	697.989451033531	130.072906728724	1204.86429215372	880.366045813517	145.077556980975	1118.6598718579	898.41290676041	143.879065122041	1589.23219638061	610.562084971436	159.573638914412	716.425913402957	1071.36144961651	155.105732463407	1675.91257966458	575.102308981336	148	647.496957952893	1173.52343798008	144.507551296419	2176.34055026725	1302.18387897027	136.888119245448	2221.16113849929	957.819195226468	143	1971.4851738406	1079.56150698547	147.667511951582	1667.62220030167
407.782529009066	142.947259547316	760.550905556448	1279.77256161238	180.801961939503	1905.19120026059	1523.96712763543	143.061156926116	2565.16278773676	1829.19502642023	159.416096973593	2824.24998973929	1312.68165161967	132.42760520228	2493.15007756551	1265.44272410145	148.208063273451	1926.78491270735	699.100677215064	130.064502673146	1205.6057244206	882.371163567958	145.06715711894	1119.64619306193	899.316811928308	143.883189376457	1589.96204547718	611.821471661411	159.617151668977	717.365629835268	1072.34651441147	155.126974404306	1676.84835817603	575.748753470354	148	648.305819825464	1174.39283662344	144.540551321868	2176.42519760698	1303.12621186721	136.898663797069	2221.8872028835	958.343299690756	143	1971.19596287305	1080.08814866125	147.690085922551	1667.43997622468
408.155074628427	142.922263733517	760.730078623133	1282.08099037786	180.838908800116	1906.91083276713	1525.4624455841	143.04072345119	2565.25211395153	1830.71869066733	159.415235981249	2824.33494046175	1314.89373671952	132.445616834377	2495.37835886331	1267.26200207931	148.247988558491	1928.0543738472	700.375808020335	130.064502673146	1206.96965413144	884.633125600438	145.070480148294	1121.36259947439	900.384897279271	143.87409096073	1591.16143560601	613.280564696569	159.661110236143	718.747023034107	1073.60160017298	155.148216414777	1678.37065181639	576.505432010055	148	649.358110497628	1175.38500972338	144.572284166666	2177.15793037352	1304.1342561032	136.893446652767	2223.18018813973	958.926219022195	143	1971.33376399374	1080.74117217729	147.719190514	1667.80003476073
408.581878536072	142.909881843156	761.201316486188	1284.70918943264	180.906362372839	1909.92735682563	1527.0930062502	143.023779221956	2566.19405142601	1832.40126775874	159.413403332218	2825.40726064595	1317.30927360702	132.454775708205	2498.51595131245	1269.19147539069	148.287886318682	1930.0215519611	701.762232039228	130.072906728724	1208.89488160409	887.07855734268	145.089306783583	1123.74851123873	901.589217313449	143.857673146993	1592.78541794016	614.905265907451	159.706136206171	720.519850739742	1075.09774069168	155.171020884849	1680.44857090389	577.363211314733	148	650.622633604034	1176.47817713743	144.600570280152	2178.56474618405	1305.18575463511	136.873013177841	2225.04957671619	959.549300411085	143	1971.92985793656	1081.49878072293	147.750684218612	1668.71988788065
409.047820301773	142.910667591451	761.951701900212	1287.56150761065	181.002394487817	1914.11150595279	1528.8062774318	143.011749802608	2567.97982886524	1834.18615250471	159.413297300823	2827.45364167437	1319.82523144028	132.454287950899	2502.51030136916	1271.16356628521	148.319411022913	1932.64183680934	703.213829822277	130.087053926439	1211.34176440025	889.633074250845	145.1239101739	1126.73768527156	902.904635195139	143.838162385343	1594.81340402212	616.660195680272	159.752435681801	722.625930455524	1076.79883123956	155.197768161837	1683.05418451725	578.309543695953	148	652.061141750771	1177.64452363616	144.62426158873	2180.61772075648	1306.24418657122	136.83871212194	2227.43482153156	960.186033862134	143	1972.96545427835	1082.32502447868	147.77888241872	1670.15867441905
409.530252376347	142.922246578062	762.946229624616	1290.51996195795	181.120014739899	1919.24399974187	1530.53085029465	143.004650252251	2570.52475583201	1835.99407590964	159.418196170194	2830.37629803569	1322.3336221603	132.443481900556	2507.24626749693	1273.10511714992	148.334766530527	1935.82388947808	704.68421103722	130.102409434054	1214.2488928367	892.210857086069	145.17156235945	1130.21736566986	904.300224505955	143.820295442833	1597.20939425451	618.496068537513	159.79983925023	724.975856340144	1078.64928206849	155.23063724442	1686.11724424364	579.32041640696	148	653.613955847901	1178.8458188968	144.643624532308	2183.20918517792	1307.26120083927	136.794136584649	2230.1920483528	960.802473158462	143	1974.36004337947	1083.17006937201	147.799315893647	1672.00289931894
410.003028068404	142.940170296781	764.116079406622	1293.43715276543	181.248774306787	1924.98073920462	1532.17314196686	143.001327222897	2573.63300608404	1837.7234190546	159.427715833334	2833.95735357921	1324.71239230146	132.423400896642	2512.47744468503	1274.92936279803	148.328876968758	1939.38565542751	706.117952044099	130.1138973788	1217.48862234052	894.701955473599	145.227527558715	1133.99482977164	905.725491993576	143.804764312047	1599.88122712945	620.339174743837	159.846444535045	727.433478673346	1080.561303239	155.270096989727	1689.48104710591	580.353188214174	148	655.187976433794	1180.03505621958	144.661110236143	2186.13670058406	1308.18386934937	136.742186687434	2233.09638038731	961.363508948047	143	1975.97116000932	1083.97601517195	147.807981447947	1674.06643643079
410.432773545531	142.95927654881	765.355868411223	1296.13191942701	181.375131948482	1930.84249947808	1533.61776689577	143	2576.98799516322	1839.24605807066	159.439355004889	2837.84643798005	1326.82803679521	132.397509478489	2517.80984556241	1276.53772796722	148.301945603018	1943.04612002252	707.443311250053	130.118459717673	1220.84714613888	896.971482885715	145.285799539934	1137.78798393742	907.10674911564	143.792734892699	1602.6517345157	622.087671660098	159.889166851605	729.80889759528	1082.41368690489	155.314581485154	1692.88439261119	581.345006518435	148	656.656331574202	1181.15405849773	144.677008897046	2189.11120393609	1308.96004019088	136.686740175522	2235.86079359683	961.833518543976	143	1977.6042265203	1084.68213566768	147.803872670298	1676.10772775425
410.787426167878	142.976220778044	766.527276297948	1298.40772146161	181.484731546045	1936.24062124574	1534.74309358317	143	2580.16496888963	1840.42980789651	159.448912338881	2841.57572834192	1328.54347770386	132.369338733657	2522.72077689408	1277.82853054965	148.257457979105	1946.44411082676	708.57717350338	130.1138973788	1224.02368239017	898.871136214519	145.338106715335	1141.24150527927	908.352714898408	143.784222243893	1605.26209188925	623.620414685934	159.924438825482	731.874972768843	1084.06521824717	155.361253849539	1695.97991085972	582.221299070943	148	657.872156574179	1182.14228804017	144.691185280085	2191.79012955576	1309.55015402925	136.628906278759	2238.1806051469	962.184525837024	143	1979.04075470048	1085.23531258612	147.786256023596	1677.86540913116
411.03822261151	142.988250197392	767.480736657076	1300.07579972218	181.565005093586	1940.56285492882	1535.44049517973	143	2582.70710463766	1841.15449687416	159.449728740512	2844.64375808458	1329.73280819002	132.344224076434	2526.62010668239	1278.70950754281	148.202962588463	1949.1795118029	709.430540026223	130.101082211157	1226.66191064927	900.253792665245	145.37721872723	1143.97001777361	909.360257888511	143.779659905021	1607.38865430274	624.810613132781	159.948648821412	733.394150656289	1085.36871220968	155.406456667409	1698.36874285963	582.902904651009	148	658.685830482374	1182.94111873571	144.702790459141	2193.82590301072	1309.9320960367	136.572306884342	2239.78005268334	962.397884946554	143	1980.06895307272	1085.59705355177	147.757542195049	1679.09866758629
411.164567697409	142.995349747749	768.075959368699	1300.98663375733	181.607493782557	1943.26345296883	1535.6332165174	143	2584.18890445038	1841.33636791707	159.436387087799	2846.58392945449	1330.30278552987	132.326633622178	2528.96021461552	1279.11640615826	148.146906347334	1950.88468317603	709.923916243969	130.082403674188	1228.41105695939	901.004116746252	145.39716444485	1145.62390207447	910.031400170565	143.779919725055	1608.70084648319	625.547621048098	159.957166277391	734.159817503863	1086.1965931001	155.444620189438	1699.67495756493	583.32262693246	148	658.97668916974	1183.50666067448	144.708078361366	2194.92254327347	1310.10775631484	136.518070826499	2240.46085875576	962.471086946547	143	1980.51951268003	1085.75000478016	147.720255879036	1679.63188318087
411.156918390508	142.998672777103	768.210329605574	1301.05829160119	181.60692137791	1943.97067987051	1535.29208907616	143	2584.30574662298	1840.94204061764	159.406346036355	2847.06095207393	1330.20887734532	132.31702604566	2529.33249692711	1279.02483978526	148.09668595068	1951.28748966906	710.002989481708	130.061156926116	1228.98757277119	901.058966918892	145.394596233746	1145.95192437522	910.290552221596	143.784758552182	1608.9143254019	625.759193373677	159.94674369768	734.034426074947	1086.46398803921	155.471398396472	1699.60843961947	583.43389730253	148	658.671955788606	1183.81330295696	144.703555577214	2194.89475668556	1310.09843712742	136.46814251233	2240.1467495071	962.411636938531	143	1980.30038251855	1085.69776599459	147.676712124852	1679.39016411127
411.018999949792	143	767.838098720341	1300.30292257515	181.564486336661	1942.56365541373	1534.44866280985	143	2582.93430760404	1840.00795471988	159.360134474102	2845.93575665429	1329.47005620911	132.314581485154	2527.56844582334	1278.4623104674	148.057123506049	1950.27485348469	709.652116112941	130.04072345119	1228.24174439246	900.426432582346	145.369600419948	1144.85957969699	910.098123538648	143.79439844251	1607.85699343309	625.427718405067	159.913119796848	732.979783784927	1086.14285254411	155.483401623375	1698.03041775111	583.223854844226	148	657.766665698936	1183.85935021916	144.687852336187	2193.69226865821	1309.93961133641	136.42382591193	2238.88420570728	962.238726001002	143	1979.40266416336	1085.46310716094	147.630121829569	1678.40494264547
410.766474711022	143	766.978801486496	1298.82652368205	181.484379075032	1939.20017013307	1533.1896185144	143	2580.15881386785	1838.62958845159	159.301242960926	2843.28878955176	1328.17380586136	132.314324793605	2523.78085076253	1277.51056066832	148.029756697104	1947.92411434357	708.902680730429	130.023779221956	1226.19179581208	899.191074603075	145.325724824974	1142.43266605088	909.465412267075	143.805979107809	1605.51491818439	624.600458180747	159.855285900085	731.073523989906	1085.27592038947	155.479912377682	1694.99232893313	582.717648341209	148	656.330194727347	1183.66899390366	144.660312069993	2191.4252180159	1309.67499558226	136.385497214595	2236.84798174928	961.97783282703	143	1977.9134773114	1085.0829559652	147.583009080793	1676.81625113469
410.42360365363	143	765.711555334733	1296.81913064948	181.375484419496	1934.29586217364	1531.64622778816	143	2576.25154060053	1836.9503866936	159.235959139143	2839.40200411785	1326.46809085859	132.310460289651	2518.36323531733	1276.2958686919	148.013077025505	1944.50080170372	707.83320543138	130.011749802608	1223.03404517909	897.506857836845	145.269207781713	1138.93235721593	908.458343523431	143.816949695803	1602.05421704976	623.38796079908	159.775536671691	728.501059592777	1083.97263903675	155.460853844851	1690.74242768612	581.9805779148	148	654.499373257379	1183.29553188887	144.621018872706	2188.34568008632	1309.35671096999	136.353827886812	2234.31020525747	961.660069671452	143	1975.99534542095	1084.60871849286	147.537576025927	1674.84346806076
410.022104531685	143	764.165649832622	1294.53360452809	181.249293063712	1928.46198805124	1529.98275839785	143	2571.63793822953	1835.15036007798	159.171990074511	2834.71710202934	1324.54804899674	132.29816427484	2511.93980940653	1274.97513094171	148.004650252251	1940.42453498138	706.56322084572	130.004650252251	1219.12220296421	895.579454032924	145.207612840713	1134.76323034125	907.194918120203	143.822665313089	1597.80861730579	621.950517425809	159.679104712785	725.53442573823	1082.40028761434	155.428390950576	1685.70060209625	581.108029537913	148	652.463256209386	1182.81120781111	144.572493025482	2184.81946239746	1309.03490149038	136.329265350296	2231.61183751571	961.316984057204	143	1973.86948074609	1084.0947932448	147.496154739819	1672.75491799782
