Light	Light	Light	Light	Light	Light	Light	Light	Light	Light	Light	Light	Light	Light	Light	Light	Light	Light	Light	Light	Light	Light	Light	Light	Light	Light	Light	Light	Light	Light	Light	Light	Light	Light	Light	Light	Light	Light	Light	Light	Light	Light	Light	Light	Light	Light	Light	Light
Optode1-730nm	Optode1-Ambient	Optode1-850nm	Optode2-730nm	Optode2-Ambient	Optode2-850nm	Optode3-730nm	Optode3-Ambient	Optode3-850nm	Optode4-730nm	Optode4-Ambient	Optode4-850nm	Optode5-730nm	Optode5-Ambient	Optode5-850nm	Optode6-730nm	Optode6-Ambient	Optode6-850nm	Optode7-730nm	Optode7-Ambient	Optode7-850nm	Optode8-730nm	Optode8-Ambient	Optode8-850nm	Optode9-730nm	Optode9-Ambient	Optode9-850nm	Optode10-730nm	Optode10-Ambient	Optode10-850nm	Optode11-730nm	Optode11-Ambient	Optode11-850nm	Optode12-730nm	Optode12-Ambient	Optode12-850nm	Optode13-730nm	Optode13-Ambient	Optode13-850nm	Optode14-730nm	Optode14-Ambient	Optode14-850nm	Optode15-730nm	Optode15-Ambient	Optode15-850nm	Optode16-730nm	Optode16-Ambient	Optode16-850nm
293.096170101045	141.094153476797	596.7941757258	1458.561172239	240.686384842061	2064.24253834071	670.935659709285	141.082403674188	1308.17171715926	1022.48820365145	163.3112584558	1468.04355245629	1077.36887593359	130.28132803541	2446.32356829178	1077.1583588218	152.114957402811	1633.73659722186	635.453586440234	128.176381527814	1160.2052784145	1171.23257647682	171.54185235232	1645.47292628268	881.058873421393	141.616353364885	1572.21437904104	1511.70981709499	186.199885940204	2185.7348296837	1305.1566429336	139.186635191412	2362.3785297488	800.563256168837	150.816514114655	1132.8523252482	662.728761928517	128.922420301349	1500.8291499498	987.974030747094	139.828266824552	1967.23148446212	353.201130590748	127.101082211157	935.742234628363	693.561595829543	184.446747616311	1160.88526269715
293.076953217961	141.084936148072	596.362975813086	1457.05931010564	240.235971556997	2061.64024209628	670.840474925984	141.061156926116	1307.64900211934	1022.43224510333	163.23139206267	1468.03877812289	1077.52806587788	130.272548791142	2445.27893497192	1077.07266620039	152.069152925397	1633.01451375291	636.78780924916	128.159183168863	1161.02717151818	1171.69487506851	171.45814764768	1645.05905399768	881.824336780366	141.626814692837	1573.5615570108	1512.34438294223	186.144887823201	2187.29500673328	1305.20833304878	139.20201132925	2362.63715625206	800.256952305959	150.785020410043	1132.78207255116	662.336086153376	128.926196822353	1499.04432354474	987.693432454307	139.762630462183	1966.16459361092	353.13082445258	127.082403674188	934.836290589017	693.319141924142	184.32819998526	1159.85418955223
293.032994650796	141.08144690238	595.790091467293	1455.43712375565	239.798086094692	2058.685287247	670.725979362409	141.04072345119	1306.85904822756	1022.29599635419	163.159983372839	1467.69563653534	1077.69462554375	130.27388075164	2444.26085269407	1077.0199822423	152.036856247461	1632.4401095865	638.238159490763	128.137676600757	1162.02324899974	1172.20523818323	171.375743973491	1644.80648793521	882.654883340054	141.643732729626	1574.95707516598	1513.23380846915	186.090130574698	2189.2195856137	1305.350117168	139.229823971274	2362.85329276202	800.02371141119	150.76631568063	1132.72661685764	661.913734729146	128.912689022874	1497.1375578655	987.419368676351	139.682764069052	1965.11247457808	353.04324350722	127.061156926116	933.820649057711	693.047110710949	184.225790551206	1158.69421558486
292.963672809286	141.086263370969	595.09764730218	1453.78833903121	239.396005625016	2055.59742287417	670.593355291566	141.025106444853	1305.82778426636	1022.08282475086	163.101336202931	1467.05540218585	1077.86368835903	130.279721403288	2443.32616177686	1077.00823879912	152.016400054859	1632.09482308962	639.742644379784	128.112832013765	1163.16049666686	1172.74145865403	171.297209540859	1644.7434074474	883.544255198773	141.663652254801	1576.35790058512	1514.34910022709	186.034745976042	2191.47336737477	1305.59506485792	139.264932787725	2363.06195162439	799.902057731876	150.761665428379	1132.77156910354	661.455420533447	128.884516599354	1495.13615134602	987.197308259695	139.596718194051	1964.19387270375	352.954907813184	127.042050674087	932.800262992075	692.765973509439	184.143386877018	1157.48655908634
292.874340400738	141.098803729047	594.327218981168	1452.21491057532	239.043704546566	2052.63223753402	670.447338586315	141.016400054859	1304.6153559946	1021.81121347443	163.058450728946	1466.20098341419	1078.02808385793	130.284682202325	2442.52347463566	1077.03617331764	152.005977475148	1632.03109254165	641.214339709784	128.088381149336	1164.33997483504	1173.26948746713	171.224992385057	1644.86308492299	884.472014187621	141.681195977657	1577.68106389047	1515.62498486728	185.977078295619	2193.94481767413	1305.93879955568	139.29991573803	2363.26063719101	799.91960292771	150.768620355184	1132.98723260781	660.958888167272	128.843790089251	1493.06984429764	987.069409413408	139.511139658403	1963.50828482998	352.881273083441	127.028429474207	931.866268882473	692.494026443483	184.082229950902	1156.31300013259
292.774463440568	141.117482266015	593.53421128252	1450.81023294428	238.744473006806	2050.04441676523	670.294085389743	141.016400054859	1303.31126923754	1021.5095436263	163.029756697104	1465.24973547828	1078.19014503675	130.282026077843	2441.90985109871	1077.11248422095	152.001327222897	1632.28293878638	642.559925683528	128.067134401264	1165.42352555626	1173.76240520749	171.159960655163	1645.14541383594	885.406862755453	141.690071466871	1578.81023679779	1516.97138435042	185.913736629031	2196.45471863787	1306.36483860593	139.32651057327	2363.40266074549	800.091950857694	150.780985090091	1133.41509561582	660.429005882875	128.79518899798	1490.97793434465	987.07051575825	139.433841406803	1963.13509459143	352.834248248043	127.023499605216	931.089541492141	692.248515814625	184.041506499712	1155.25310447145
292.676205785781	141.139003823654	592.780802097404	1449.64014603331	238.49283361035	2048.04268345505	670.137748428558	141.025106444853	1302.01837817203	1021.20231987059	163.013077025505	1464.32817903309	1078.35384618613	130.268518208791	2441.55248504834	1077.24290742139	152	1632.87154601854	643.689638057474	128.052473253798	1166.26749909324	1174.19643898314	171.101880377306	1645.57197134005	886.31056099599	141.684706224248	1579.62393628792	1518.28511242479	185.841343850058	2198.79577054964	1306.84808965298	139.338089559881	2363.43034903526	800.420050339318	150.791936726549	1134.0676644272	659.875330270249	128.74201310209	1488.90738944275	987.217440020017	139.369330521287	1963.11855431984	352.819356601474	127.028429474207	930.509609502921	692.043222104147	184.017727277756	1154.37282454391
292.590208962382	141.159183168863	592.12456172751	1448.73115587807	238.275197674714	2046.7544954556	669.976157479176	141.04072345119	1300.8321791497	1020.90184451827	163.004650252251	1463.54436364837	1078.52570885107	130.243321150786	2441.50231691424	1077.42868393312	151.998672777103	1633.78402351737	644.531961303915	128.047558443912	1166.7479202371	1174.55471399591	171.048102618287	1646.11753845926	887.143238454649	141.662077307774	1580.02177296244	1519.46696721476	185.756858134722	2200.76084897191	1307.36357521761	139.330204191655	2363.29257490252	800.889959904212	150.796239245388	1134.92566125497	659.311682696092	128.687007236465	1486.90320750992	987.505359068967	139.31925445508	1963.45558881378	352.834665632703	127.042050674087	930.129693818757	691.885401878992	184.005977475148	1153.71290852081
292.524233839363	141.175054304917	591.607149402406	1448.0646303905	238.072123680202	2046.19843095379	669.802415475994	141.061156926116	1299.82106310147	1020.60166190513	163.001327222897	1462.95943432931	1078.7093859264	130.208050855597	2441.78223927912	1077.65605061479	151.994022524852	1634.96548794723	645.043323348391	128.052473253798	1166.78986602328	1174.82107185886	170.994022524852	1646.74617620007	887.870974413756	141.624238871054	1579.95749443731	1520.42891990198	185.660312069993	2202.19039516292	1307.88636489013	139.303272825915	2362.98105951161	801.470975706751	150.791936726549	1135.94525800124	658.753500512986	128.632136587561	1485.00713059882	987.907136246428	139.282280069617	1964.09756428558	352.872839454554	127.061156926116	929.926471345451	691.777891759951	184.001327222897	1153.28581285032
292.479733867169	141.183485885345	591.252453570101	1447.58941990111	237.862665067182	2046.29270684115	669.607035087824	141.082403674188	1299.01933473642	1020.28182512022	163	1462.58046694128	1078.89981469054	130.16821661242	2442.34553902293	1077.89378652021	151.983599945141	1636.30127436052	645.212377245044	128.065807178367	1166.36823401042	1174.97788152934	170.935497326854	1647.39308530666	888.465808620508	141.576262001448	1579.44468001271	1521.10053170352	185.554667519964	2202.98298981931	1308.38891701736	139.262108231356	2362.51649883141	802.112603253606	150.779657867194	1137.05711192345	658.210435043592	128.579773964817	1483.24128865686	988.369885411341	139.254751781934	1964.94462733799	352.920147381461	127.082403674188	929.850028166058	691.711040450196	183.998672777103	1153.06658451909
292.453847166668	141.183485885345	591.064912557468	1447.23349480754	237.626172319525	2046.87969201669	669.384430334953	141.101082211157	1298.43041781566	1019.91403630581	162.998672777103	1462.36355405084	1079.08366298042	130.129104600526	2443.09174265828	1078.09467957536	151.964470975436	1637.63574683694	645.062389985423	128.083730897085	1165.51548795068	1175.00798821313	170.86724085038	1647.97269370119	888.909370616247	141.526945598755	1578.56259631378	1521.4321260578	185.446659702933	2203.12033887571	1308.84501778081	139.216039613968	2361.96898990834	802.754101457812	150.763970102933	1138.18865158554	657.689796761037	128.530631468517	1481.61649562244	988.829286668646	139.231921119417	1965.87470395713	352.963668002113	127.101082211157	929.844859574133	691.669537009397	183.994022524852	1153.00582957893
292.439448480488	141.175054304917	591.030566451492	1446.9201049672	237.344650542927	2047.75319391784	669.132022847935	141.113897378801	1298.02785046255	1019.47016556556	162.995349747749	1462.22496481176	1079.23936851226	130.09668595068	2443.87234947602	1078.20571378955	151.935497326854	1638.79323218908	644.643465144191	128.101082211157	1164.30663018715	1174.8964080557	170.787286474299	1648.38525034054	889.19823024987	141.486594277341	1577.43371845241	1521.404901162	185.345665405154	2202.65386430041	1309.23663729099	139.176663044438	2361.43140856012	803.334120159247	150.749915625771	1139.27278830207	657.195027972168	128.485768586342	1480.1400975195	989.222277239998	139.209378078494	1966.77561971491	352.993973680765	127.113897378801	929.864839948121	691.633577348801	183.982272722244	1153.04531093796
292.428484426176	141.159183168863	591.127172888732	1446.59157694241	237.008067491451	2048.72282072294	668.858296075249	141.118459717673	1297.78258394333	1018.93752626071	162.988250197392	1462.08281055625	1079.34122417305	130.076252475754	2444.52793022259	1078.17921667519	151.898119622694	1639.62069068675	644.022169444893	128.1138973788	1162.84421151316	1174.63488407394	170.696906459593	1648.54262474715	889.341214849225	141.462504508599	1576.20107433691	1521.03559876192	185.260869143033	2201.69445656442	1309.55676853623	139.153809456729	2361.00494003998	803.80492002466	150.742536458673	1140.26255431416	656.726850545505	128.445332480036	1478.82602368629	989.495506093498	139.18426689604	1967.57375242613	353.007478421331	127.118459717673	929.883928763613	691.582854343252	183.958493500288	1153.13604894021
292.412323511502	141.137676600757	591.325772348632	1446.21719266448	236.614422516917	2049.63668829191	668.57882583409	141.113897378801	1297.66836579912	1018.31994604586	162.976220778044	1461.8748713879	1079.36965371563	130.069152925397	2444.94187003284	1077.99311108247	151.855112176798	1640.03367940185	643.272125906344	128.118459717673	1161.24732566966	1174.23456478432	170.599953310026	1648.40265111971	889.357968160723	141.458947851656	1575.00102353655	1520.3744319255	185.200162649654	2200.39592078174	1309.81342111083	139.153809456729	2360.79243844146	804.143724319506	150.744296958853	1141.14702625794	656.287643638938	128.409914086526	1477.71523124418	989.6181209296	139.157275275784	1968.26432700476	353.008404055578	127.113897378801	929.908079407727	691.503398440155	183.917770049098	1153.26147452531
292.387091636378	141.112832013765	591.59876641427	1445.80952893989	236.174800313142	2050.41470225086	668.318497578251	141.101082211157	1297.67367685275	1017.64809552353	162.95927654881	1461.5796187537	1079.30988351188	130.074233951621	2445.07700869288	1077.64724381244	151.810536639507	1640.04164328286	642.45659158796	128.1138973788	1159.64238634088	1173.71527175534	170.503254290177	1647.990349789	889.277616417883	141.47508917714	1573.94650449044	1519.50585028103	185.168493321871	2198.93061336408	1310.03000346872	139.176663044438	2360.88341632464	804.359306508063	150.755357188539	1141.94762886907	655.884384620238	128.378799941901	1476.87476473577	989.58637681352	139.13083890826	1968.9064237855	353.00799599928	127.101082211157	929.969515408659	691.392157235462	183.856613122982	1153.43936790378
292.353029720663	141.087053926439	591.92106917207	1445.42054684858	235.708767934289	2051.05072155758	668.108425360805	141.082403674188	1297.80168940588	1016.97517820654	162.938843073884	1461.22128599865	1079.16179111747	130.087053926439	2444.98517595932	1077.17365074107	151.767293132287	1639.738334232	641.627482672973	128.101082211157	1158.14937780608	1173.11345087361	170.415253911699	1647.39639823337	889.127030840078	141.505608129868	1573.11720940901	1518.52682518275	185.164981358502	2197.47065548742	1310.22622536799	139.216039613968	2361.34719080717	804.481515647643	150.77270850261	1142.70951610879	655.524153591675	128.352140374707	1476.38880180869	989.414037441343	139.110553531655	1969.59473189758	353.017628023522	127.082403674188	930.11225761245	691.253054157575	183.774209448794	1153.71413505276
292.315908708051	141.062484149013	592.270546667416	1445.13080967358	235.243517828962	2051.59297840314	667.98208813292	141.061156926116	1298.06171764635	1016.37048827249	162.917596325812	1460.85567205335	1078.93797720567	130.10373665695	2444.78868018638	1076.61955734568	151.727463626712	1639.27123441775	640.819167154085	128.082403674188	1156.87440492686	1172.47117828244	170.344600040119	1646.75975330102	888.927843027897	141.542285629603	1572.55354098818	1517.53587615813	185.185067100016	2196.15657007747	1310.4110482591	139.262108231356	2362.20475597827	804.551160213047	150.792387159287	1143.47335831762	655.213915869399	128.33099965803	1476.34009070458	989.125381131381	139.101336202931	1970.42198268953	353.046749770425	127.061156926116	930.376463933341	691.097546168029	183.673127237637	1154.13785985897
292.285625816647	141.04072345119	592.628454749977	1445.02645291178	234.808975679952	2052.12259696013	667.970175665435	141.04072345119	1298.46162226571	1015.90539404857	162.898917788843	1460.55479996415	1078.6653082706	130.118547631051	2444.63499346588	1076.04680924911	151.690063204875	1638.79253143453	640.052562747817	128.061156926116	1155.89536690744	1171.83302729946	170.297463532633	1646.22533554063	888.684932143612	141.575826354658	1572.25765882273	1516.60548307308	185.220342132806	2195.07806867071	1310.56464299903	139.303272825915	2363.414763279	804.60240455376	150.809850145445	1144.25094305976	654.95411155755	128.314153770093	1476.77087469707	988.746283076955	139.106553347233	1971.42478579849	353.097488924004	127.04072345119	930.777256948916	690.936107570344	183.55790263594	1154.73778533953
292.272379805456	141.025106444853	592.973384505663	1445.17080557153	234.431756952721	2052.7030435676	668.093030414983	141.023779221956	1298.98758451661	1015.63501934198	162.8861026212	1460.37083601473	1078.37772671078	130.130209520281	2444.6464256998	1075.51268120748	151.653383335633	1638.41398062036	639.335636703169	128.04072345119	1155.24770329613	1171.23457714365	170.276942144329	1645.90246709053	888.385894424344	141.598973958484	1572.19087848433	1515.77294056809	185.260353293398	2194.25522133219	1310.63757659105	139.330204191655	2364.86303880322	804.651023238929	150.822232035807	1145.00974447605	654.734663508301	128.303526817689	1477.65610900619	988.291754578607	139.125659599262	1972.55208123127	353.162256292727	127.023779221956	931.289583806	690.77423345988	183.436119888913	1155.49183350134
292.284648364989	141.017727277756	593.282764974598	1445.58117847976	234.131027941546	2053.36282117509	668.353975206045	141.011749802608	1299.60301563906	1015.58221432111	162.881540282327	1460.32441023571	1078.11422898718	130.137676600757	2444.88248476645	1075.06628959501	151.615830008302	1638.18353620176	638.669873958802	128.025106444853	1154.91880894263	1170.69817094313	170.281063477775	1645.83606638321	888.00240262935	141.607431731358	1572.28765911841	1515.0375112901	185.294841245487	2193.64412748886	1310.55909027716	139.338089559881	2366.3771636033	804.690140373702	150.828979115151	1145.67270453209	654.537313772157	128.298964478817	1478.89350879977	987.772005839718	139.155310402913	1973.66346031259	353.226915533706	127.011749802608	931.84859389797	690.610294969934	183.315122959755	1156.3236756618
292.32592150315	141.021050307109	593.532058176252	1446.22139700609	233.915882273193	2054.07332804805	668.737499376701	141.004650252251	1300.24220779476	1015.73087078023	162.884775398303	1460.38763345102	1077.90946446867	130.141805662347	2445.31936822915	1074.73946644464	151.574940340773	1638.07764175459	638.047186231205	128.016400054859	1154.84372705145	1170.22822547338	170.303093540407	1645.98819024818	887.504322844928	141.600910081835	1572.46206141611	1514.37354901567	185.314760770662	2193.15320027068	1310.25917370683	139.32651057327	2367.74890774153	804.698607294469	150.830456164683	1146.1359276024	654.339966469749	128.300011379552	1480.31361987745	987.192603486262	139.188136137596	1974.55914185435	353.274581493847	127.004650252251	932.361612746599	690.43788789604	183.20201132925	1157.10957466878
292.394007163627	141.038183470358	593.700068951971	1447.0088361917	233.784786673384	2054.76819778085	669.211191580425	141.001327222897	1300.82729570357	1016.02985131844	162.894267536593	1460.50055196112	1077.79004414347	130.143560600305	2445.86223573466	1074.54587077129	151.530256210255	1638.02018860042	637.456053613461	128.016400054859	1154.91465276288	1169.81196597516	170.333023960797	1646.25392273804	886.863421049799	141.58509585954	1572.61790269939	1513.74043699513	185.316061801114	2192.66288275071	1309.68243920236	139.29991573803	2368.75924974545	804.645238308706	150.829215176476	1146.29114498683	654.124778208543	128.306343645914	1481.70883617873	986.562357991533	139.216306812854	1975.02466323761	353.288680536488	127.001327222897	932.723254082489	690.247783362012	183.102663425828	1157.70472258284
292.484148038147	141.069152925397	593.772706581925	1447.83429542505	233.727121692734	2055.36136961199	669.732417184838	141	1301.28405976715	1016.41006200355	162.905846523204	1460.58807654528	1077.77127220047	130.143560600305	2446.38477175234	1074.48337864088	151.482450364162	1637.91923233388	636.881546885582	128.025106444853	1155.00708780733	1169.42888171483	170.359867413159	1646.49761122516	886.065923660749	141.567225858117	1572.66651383332	1513.1031779781	185.297383264146	2192.06062962646	1308.8076230281	139.266260010622	2369.21829426152	804.502497733376	150.826011060119	1146.05544173759	653.885598922479	128.315820794673	1482.87561327268	985.898553976074	139.233684319371	1974.88510934072	353.259192938155	127	932.838403413905	690.03227740445	183.021073024785	1157.9741155071
292.587659333043	141.113630179914	593.748942211558	1448.58271674912	233.726321488758	2055.77775951935	670.255859608979	141	1301.56314789712	1016.79712720483	162.913736629031	1460.5890115013	1077.86102058378	130.141805662347	2446.75885429988	1074.54430469963	151.433149400145	1637.69222139728	636.314308928022	128.04072345119	1155.00029498046	1169.06206344393	170.37416275882	1646.58571012233	885.11757587951	141.556160821257	1572.53550676133	1512.44261203116	185.262020317978	2191.26519157199	1307.65524902257	139.234474223525	2368.98977351101	804.254499127831	150.821599948054	1145.39132647884	653.633117928138	128.327487694661	1483.65979450314	985.230024163213	139.237007348724	1974.05900061685	353.184858003987	127	932.646690196658	689.79289906058	182.957775602627	1157.83286175712
292.696626842853	141.167339822261	593.640653806327	1449.15705761798	233.762661886583	2055.97155575702	670.743385872047	141	1301.64994002191	1017.13111727373	162.912575622473	1460.47209754383	1078.05390621145	130.137676600757	2446.9044470119	1074.70888839077	151.384444801264	1637.2987638591	635.747988143502	128.061156926116	1154.80848033023	1168.70077947083	170.37003369723	1646.4312601071	884.042491293013	141.557723350431	1572.17737998264	1511.75912835484	185.215777756107	2190.23743929948	1306.28515076071	139.212433908961	2368.01267858992	803.900908199846	150.815710386284	1144.31705014992	653.392869763274	128.338889763857	1483.98330318948	984.593299226537	139.226729392565	1972.57433592217	353.072390879089	127	932.130240457961	689.536865773155	182.910667591451	1157.26229484744
292.803966145897	141.224209336535	593.469671451181	1449.49476262939	233.817043171402	2055.94007460785	671.167738802897	141	1301.56673905464	1017.37576564741	162.897336574172	1460.24550183345	1078.34119657551	130.131536743178	2446.80795115561	1074.95760642937	151.338272793732	1636.75268265095	635.185338898561	128.082403674188	1154.3965436099	1168.35128259109	170.345189110238	1646.01548908254	882.884257045358	141.576188543751	1571.58395752511	1511.07848907141	185.165584884303	2189.00158556672	1304.79327125785	139.205764161118	2366.32648145848	803.46199828667	150.807218417328	1142.91091323764	653.204444456239	128.349224430191	1483.86555960519	984.031509978147	139.207265107301	1970.58021886823	352.936053919083	127	931.325755476647	689.283308404995	182.875680041488	1156.32547327101
292.90331404932	141.276136516073	593.266820756002	1449.57440707372	233.875667623635	2055.72407192416	671.518505159078	141	1301.36907550033	1017.52432211805	162.864340023492	1459.95581805748	1078.70896822996	130.123197883302	2446.52492569445	1075.2694709532	151.295882317962	1636.11538100371	634.635457672188	128.101082211157	1153.78511421291	1168.03212727757	170.302033516396	1645.39085059495	881.694957215111	141.609437186321	1570.78044484777	1510.43558294299	185.117932698753	2187.633870155	1303.28575283385	139.215256299408	2364.06133014564	802.968430578667	150.794136584649	1141.29780152641	653.108283644562	128.358104609114	1483.41156703556	983.583372821701	139.184284051495	1968.31172303436	352.793721237816	127	930.314330124461	689.05657318417	182.84733848066	1155.15287365043
292.99200400072	141.314760770662	593.062429338723	1449.42072940237	233.929724999393	2055.39454671666	671.800011073632	141	1301.12590611203	1017.5959363245	162.812037585691	1459.66816585244	1079.14133733637	130.114159236662	2446.15513903092	1075.62311195183	151.256486089669	1635.47692496972	634.112031072002	128.1138973788	1153.03640034516	1167.77059400347	170.247297257255	1644.66435844442	880.532666412052	141.653731069045	1569.82802947747	1509.87218061877	185.077556980975	2186.24968398006	1301.86803473736	139.238067372735	2361.41994938925	802.459443733016	150.775007614943	1139.62759293243	653.139267029355	128.36480020312	1482.78455231296	983.276757488971	139.163037303422	1966.04196282057	352.66284088154	127	929.202952337433	688.88240576526	182.821599948054	1153.91304200199
293.07065387158	141.33343930763	592.885058311169	1449.09624685406	233.977548000941	2055.05101704556	672.032132582355	141	1300.91246723405	1017.63183106172	162.741388521285	1459.46118887484	1079.62742817303	130.106182896144	2445.82255836022	1076.00429341789	151.218590669617	1634.9383982932	633.632090843135	128.118459717673	1152.24209902854	1167.60034311792	170.190261526642	1643.97248685767	879.455168048255	141.701556711844	1568.8136241568	1509.42567090515	185.046700926337	2184.98280214808	1300.62648942206	139.268085706503	2358.64398159204	801.974545842535	150.747365996432	1138.04974575361	653.317412823488	128.369618350397	1482.17307124577	983.124427944221	139.146906347334	1964.030944261	352.557201893733	127	928.107539695909	688.783601770174	182.797037411537	1152.78033505328
293.141805662347	141.328876968758	592.757476215474	1448.68214479479	234.023779221956	2054.79303760266	672.240690716079	141	1300.79549466844	1017.68067905729	162.655749731121	1459.40606453658	1080.15804301911	130.101880377306	2445.62986401165	1076.40548076401	151.181031780064	1634.58768410079	633.214318656091	128.1138973788	1151.49613552347	1167.55039284029	170.142059654121	1643.44734747297	878.510153024179	141.743931294991	1567.83077002606	1509.11946888991	185.025106444853	2183.94869730385	1299.61441857111	139.297645122007	2355.9558433682	801.5461681327	150.710506979624	1136.68345680706	653.641329059243	128.373874880085	1481.74283913528	983.117471183565	139.136611235721	1962.47061878753	352.483080369246	127	927.126390176742	688.77145044495	182.774035725507	1151.8944130131
293.209256106584	141.301945603018	592.694201510991	1448.25553256961	234.076252475754	2054.70715237015	672.450470934294	141	1300.82448831851	1017.78041090394	162.559229858837	1459.55537796074	1080.72954756774	130.101880377306	2445.6500624422	1076.82683628918	151.143132885243	1634.49221888829	632.877957960922	128.101082211157	1150.88326579509	1167.64226079407	170.111781500318	1643.19478662307	877.726940561771	141.774209448794	1566.96729152228	1508.95214049104	185.011749802608	2183.22810008927	1298.84818927555	139.321162486102	2353.54268192378	801.194518027505	150.664962322244	1135.60813219195	654.086886002587	128.37828599215	1481.59981696518	983.226673140801	139.130297433659	1961.44713242389	352.438844954688	127	926.320874004214	688.844428197636	182.755357188539	1151.33203769842
293.277115867616	141.257457979105	592.698940697706	1447.87558095075	234.142059654121	2054.84519194119	672.677861469505	141	1301.01925334651	1017.95040735336	162.45814764768	1459.92510938027	1081.33691015203	130.106182896144	2445.89992366452	1077.2659870589	151.106182896144	1634.68079595945	632.638282784182	128.082403674188	1150.45988644108	1167.87765945026	170.104681949961	1643.26680125325	877.117564086319	141.785809065628	1566.29697622232	1508.89918053613	185.004650252251	2182.85912799109	1298.31115068014	139.33423747378	2351.54621586281	800.926490994044	150.61276847767	1134.86238577595	654.615493852959	128.384450363486	1481.77820217365	983.410956905457	139.124437192821	1960.94642172349	352.417773967729	127	925.715118327937	688.987902701193	182.744296958853	1151.10687756439
293.346616664367	141.202962588463	592.765046074578	1447.57178884835	234.227117774103	2055.21078028328	672.928246770886	141	1301.36499629148	1018.18456261204	162.358366466975	1460.48837740863	1081.96876196046	130.112832013765	2446.33245598516	1077.70857068497	151.072906728724	1635.12789208778	632.500806857744	128.061156926116	1150.24239399305	1168.2307059791	170.119607655062	1643.64663305502	876.668995719243	141.776770418988	1565.85880292014	1508.90963841814	185.001327222897	2182.81760855139	1297.95243860666	139.33423747378	2350.03265831353	800.731005025446	150.558439303367	1134.43623865551	655.178242614632	128.392688202725	1482.24317906168	983.621648195042	139.115224601697	1960.87096392761	352.409805493299	127	925.298059547464	689.177360483447	182.74386368157	1151.17469868543
293.416990919207	141.146906347334	592.877510696168	1447.34808502627	234.332850237511	2055.7673706434	673.195231976824	141	1301.81819954236	1018.45471263502	162.265715836247	1461.18032461983	1082.60842627244	130.118547631051	2446.84399665793	1078.12719599005	151.045373703441	1635.75068228142	632.463533145418	128.042050674087	1150.20517985464	1168.6545830244	170.149538075452	1644.24816242226	876.354389546955	141.750182824657	1565.6479807463	1508.91735383863	185	2183.01791210026	1297.70531120335	139.322489708999	2348.98594932643	800.583979543918	150.507390592676	1134.27553131687	655.726559395538	128.404696942224	1482.89627215358	983.810712495088	139.101082211157	1961.06253815853	352.405241116599	127	925.031708589446	689.381624277074	182.755893100918	1151.4489665696
293.487012703035	141.09668595068	593.015689802088	1447.19360136461	234.457170196022	2056.44637655829	673.468654363998	141	1302.31341062713	1018.7271704566	162.186394322913	1461.90817715543	1083.23060154141	130.11978694057	2447.28453879362	1078.47844850344	151.025106444853	1636.40848387832	632.51152289187	128.028429474207	1150.28432614564	1169.08036455404	170.184813108242	1644.92351253987	876.139360501395	141.711458100894	1565.61643552877	1508.85561462339	185	2183.32378550735	1297.50107635694	139.300968151361	2348.30376962931	800.453355075742	150.464788503305	1134.28481405981	656.219158833306	128.421555295907	1483.59701534743	983.936332551486	139.082403674188	1961.33640510618	352.396721622793	127	924.862925879478	689.568779576763	182.780370157792	1151.82031838658
293.553340297067	141.058450728946	593.157057779817	1447.08717013035	234.594758883401	2057.15941124435	673.73815896753	141	1302.77734426775	1018.96936256439	162.125585130209	1462.56872898266	1083.80445412974	130.1138973788	2447.48457947609	1078.71368960161	151.011749802608	1636.92365067163	632.624912854601	128.023499605216	1150.39214003845	1169.43352537627	170.214979589957	1645.48780064717	875.99120798891	141.668730977161	1565.67386701862	1508.67215954264	185	2183.55973221959	1297.28323257832	139.273858033964	2347.80057244706	800.303710036959	150.433841406803	1134.33783719632	656.623624142292	128.445420393414	1484.18193958898	983.964946048802	139.061156926116	1961.50789886801	352.379263443808	127.001327222897	924.732502419195	689.707964364613	182.815186891758	1152.17307278252
293.612654371847	141.034406949354	593.275319739286	1447.00616493938	234.737629910783	2057.80219870983	673.996409600189	141	1303.13526542525	1019.15925292521	162.086880203152	1463.05967918845	1084.30230734163	130.101082211157	2447.29481375775	1078.79148908088	151.004650252251	1637.11754774609	632.782126946843	128.028429474207	1150.44125764494	1169.64900856733	170.232357096474	1645.7600145808	875.893749316597	141.62971000713	1565.69967476352	1508.35068065091	185	2183.53439709408	1297.03307516847	139.245446539832	2347.22385993507	800.111938205193	150.417008899282	1134.28979260381	656.91867486075	128.478951573695	1484.48522564788	983.874185188379	139.04072345119	1961.41401875375	352.351590825678	127.004650252251	924.582829962052	689.774946049755	182.856439399695	1152.39834347779
293.660500644869	141.024826828113	593.345076456521	1446.92596141324	234.8760898261	2058.27239353889	674.239113731224	141	1303.3221235809	1019.2847564448	162.072385272025	1463.29701499895	1084.70303745254	130.082403674188	2446.60553195441	1078.68905491308	151.001327222897	1636.84501106261	632.966415785563	128.042050674087	1150.35999542521	1169.68469209403	170.232357096474	1645.59116211975	875.851054386944	141.600303081266	1565.57434318513	1507.91805291266	185	2183.09222073209	1296.77313706797	139.219123503136	2346.32150632667	799.872157008107	150.413232308706	1134.01120730473	657.093671161249	128.521323097929	1484.35903816336	983.653777810245	139.023779221956	1960.93245545303	352.313783319004	127.011749802608	924.364217176449	689.752407816006	182.896792399797	1152.4055671106
293.691712299006	141.028429474207	593.340024064549	1446.81941485471	235.000173723287	2058.46686991686	674.46330238791	141	1303.28028901461	1019.34202004258	162.080902728005	1463.21519022334	1084.99411580808	130.061156926116	2445.3657798363	1078.40602065668	151	1636.02132654438	633.165678359902	128.061156926116	1150.10265103185	1169.5263083741	170.214979589957	1644.89285344813	875.884385612499	141.58511378999	1565.19605559805	1507.43929243134	185	2182.1387038143	1296.56268143538	139.199095384734	2344.8827944868	799.598819572011	150.419681860808	1133.41274954388	657.147356269289	128.572731124634	1483.69414638736	983.305059260134	139.013077025505	1959.99757965759	352.266670570228	127.025106444853	924.038475595859	689.632025498097	182.930847074603	1152.13204729534
293.701297157848	141.042050674087	593.237429668331	1446.66160628965	235.101255934443	2058.31241822381	674.666454231437	141	1302.97291610055	1019.33410477078	162.107857852454	1462.78783776166	1085.18186961808	130.04072345119	2443.60065380317	1077.97390104799	151	1634.65247578585	633.378306981513	128.082403674188	1149.65883740411	1169.19686218155	170.184813108242	1643.66344331493	876.027708587225	141.58618688317	1564.51163778788	1507.00838688769	185	2180.67808279999	1296.48478903958	139.187184878383	2342.80039858135	799.325478681093	150.434370463551	1132.47000187534	657.087284988218	128.628906278759	1482.43652892918	982.844417398656	139.009300504501	1958.60376095584	352.212454726753	127.045373703441	923.58207978733	689.4153970601	182.951393949931	1151.54876227616
293.685592238133	141.061156926116	593.022254288727	1446.43126121009	235.173473090245	2057.77137230118	674.844863320374	141	1302.38209222219	1019.26668377734	162.144887823202	1462.02391848505	1085.28405496659	130.023779221956	2441.40177128953	1077.44314427996	151	1632.83189035335	633.604165497768	128.101082211157	1149.04884815794	1168.74260413688	170.149538075452	1641.98184069677	876.316890292498	141.602573697288	1563.52535920051	1506.72414561958	185	2178.81455442761	1296.62105920203	139.185943890176	2340.09615951037	799.096507224727	150.453676350671	1131.23219000404	656.930146964645	128.683661489436	1480.60525398629	982.299158314473	139.013077025505	1956.81696042975	352.153835081695	127.072906728724	922.995073384562	689.114518929518	182.953843248038	1150.6691936775
293.64469776343	141.082403674188	592.690181321104	1446.12486747327	235.214629818718	2056.86091076727	674.997095792248	141	1301.51893896721	1019.15304940736	162.183485885345	1460.97328655638	1085.32956102908	130.011749802608	2438.90793014433	1076.8775120392	151	1630.71966843852	633.847071281773	128.1138973788	1148.31261187797	1168.22557989092	170.118280432165	1639.99359413553	876.773801623538	141.632159305237	1562.29609639147	1506.66297847923	185.001327222897	2176.7318030258	1297.02410550186	139.197454552599	2336.91449987438	798.95333799884	150.476419099811	1129.81137953831	656.701647259353	128.7309611344	1478.28941086439	981.708140584137	139.025106444853	1954.75252028384	352.094153476797	127.106182896144	922.296622459726	688.749989017826	182.936899018804	1149.54367409981
293.583624013091	141.101082211157	592.249055026643	1445.76264866489	235.227706844223	2055.65325280195	675.126267675929	141	1300.42254137182	1019.01578199491	162.214979589957	1459.72122996583	1085.34954981216	130.004650252251	2436.29577098151	1076.33552525937	151	1628.51961569697	634.106083641911	128.118459717673	1147.50717536158	1167.70687818354	170.10003169771	1637.88807369212	877.397416309696	141.670063007232	1560.92643779514	1506.85687538782	185.004650252251	2174.65293979452	1297.69622267637	139.223141667634	2333.49302934526	798.922606749296	150.501033121665	1128.35691627639	656.435102564125	128.764478170318	1475.64401378389	981.117117614362	139.045373703441	1952.56542144077	352.036833529785	127.141805662347	921.529991216816	688.350616848789	182.901986826423	1148.25671112853
293.511149958225	141.113897378801	591.721818926044	1445.38747095513	235.219629842208	2054.26845757498	675.241231923741	141	1299.16283274933	1018.88532536148	162.233684319371	1458.37696808416	1085.3766240708	130.001327222897	2433.75535597794	1075.8695744255	151	1626.44362298613	634.380211795731	128.1138973788	1146.696456029	1167.24037211688	170.101358920607	1635.8693819803	878.160457585087	141.70952749014	1559.54654774065	1507.28860741742	185.011749802608	2172.80869318735	1298.59061507164	139.263056583279	2330.13121443789	799.010652310748	150.527191204854	1127.03385213286	656.169232125964	128.781308999151	1472.87238956062	980.576236067409	139.072906728724	1950.42709165344	351.986871223118	127.175054304917	920.756004999588	687.950624300892	182.853093652666	1146.91880276692
293.440225966788	141.118459717673	591.138309729543	1445.06115359409	235.201213163101	2052.83916864061	675.358633837432	141	1297.8205486414	1018.7982707341	162.237007348724	1457.04663086099	1085.43395350367	130	2431.47310421129	1075.51006919314	151	1624.68164351003	634.662508216963	128.101082211157	1145.94610613539	1166.8603509924	170.124257907312	1634.12585599753	879.007634234969	141.742715744182	1558.27930298808	1507.88560579891	185.023779221956	2171.3747857197	1299.60861755809	139.313795736858	2327.11439196163	799.197628296686	150.552554548771	1125.98163588038	655.941046031644	128.780614639002	1470.19378414314	980.129210686351	139.106182896145	1948.4958271701	351.947353022915	127.200863391861	920.041973574853	687.583037597904	182.797037411537	1145.64776572264
293.385323491309	141.113897378801	590.536618808584	1444.85404449546	235.185067100016	2051.50561836241	675.499586533971	141	1296.48869376926	1018.79261677647	162.228056615462	1455.82884439117	1085.53822383698	130	2429.61688260404	1075.27056204174	151.001327222897	1623.38200002725	634.944919803265	128.082403674188	1145.31986775334	1166.58643354676	170.167265353208	1632.81212899669	879.875384058552	141.76423730182	1557.23714245493	1508.55544679081	185.042050674087	2170.47231705219	1300.63827698112	139.370424382633	2324.69739677534	799.451578401738	150.574605996675	1125.30510273957	655.787318939752	128.764310225666	1467.81655195598	979.815313004382	139.141805662347	1946.90060282442	351.92241739406	127.214979589957	919.45139309677	687.280454344911	182.742542020895	1144.55379512315
293.357427625616	141.101082211157	589.961356380165	1444.8188045982	235.184110328208	2050.39068751335	675.683343616171	141	1295.26205556758	1018.89494457723	162.211915359552	1454.80562542422	1085.70415131584	130	2428.31772401572	1075.1591685053	151.004650252251	1622.64016514666	635.223502917671	128.061156926116	1144.87536056225	1166.43082813806	170.226319607954	1632.03103433576	880.69813226058	141.769906929955	1556.4921679574	1509.19901453362	185.067134401264	2170.1383633327	1301.57159969048	139.424347368629	2323.05157623965	799.732824022685	150.589508012639	1125.05520803668	655.734523884294	128.736035626942	1465.90387968944	979.658630690343	139.175054304917	1945.71943840417	351.914532095406	127.214979589957	919.027628853812	687.067700730639	182.698054396982	1143.72205161175
293.364527175974	141.082403674188	589.453177710919	1444.98689186797	235.207889550164	2049.57494981273	675.924457984553	141	1294.21987562824	1019.11724907779	162.197361077	1454.02565905014	1085.94149197826	130	2427.66919188085	1075.17871602306	151.013077025505	1622.50674522244	635.498160846098	128.04072345119	1144.66492392653	1166.39993534193	170.295882317962	1631.83611872477	881.424937494045	141.760181164076	1556.08221460398	1509.73813605658	185.100130951944	2170.3440418037	1302.33596989414	139.469643458514	2322.26412329115	800.008342793638	150.595920027901	1125.23361956569	655.796733154168	128.700158731023	1464.56058248975	979.662502631673	139.200863391861	1944.98162982518	351.923590956414	127.200863391861	918.789843058979	686.959251908181	182.671123031242	1143.20302591608
293.407775490368	141.061156926116	589.048168623466	1445.35576501711	235.261319575771	2049.10451624849	676.225670479181	141	1293.42289537359	1019.44783469516	162.191466777629	1453.50982873448	1086.25959667932	130	2427.70509951063	1075.33050168501	151.028429474207	1622.9788016063	635.773418755381	128.023779221956	1144.72575805197	1166.49960060019	170.371093721241	1632.2189678888	882.026900573588	141.737521317556	1556.01516454106	1510.13256113424	185.141261487972	2171.01602311957	1302.90809705088	139.499545382594	2322.3552380978	800.258958974914	150.592633494354	1125.8061500084	655.978084105692	128.661110236143	1463.82921980449	979.81496093735	139.216306812854	1944.6768091897	351.948586770213	127.175054304917	918.733682158385	686.959949743099	182.66656069237	1143.01328682298
293.482276640875	141.04072345119	588.771108510973	1445.89414089143	235.343272817222	2048.97624729707	676.576777851084	141	1292.90034231091	1019.85716513462	162.200706824029	1453.24730512844	1086.66289342517	130	2428.38045014458	1075.6130583312	151.052473253798	1623.99167488021	636.055194302558	128.011749802608	1145.06507599807	1166.73409930839	170.446397845072	1633.10691020566	882.494523252896	141.708222984919	1556.27222614389	1510.37558629589	185.190149854555	2172.05588688284	1303.30580505951	139.512886965734	2323.27683728993	800.476306180055	150.583794829089	1126.71014035391	656.269722963136	128.621801921228	1463.69939908898	980.083756355284	139.219629842208	1944.77014838794	351.985971715282	127.141805662347	918.839584875899	687.061444242176	182.685239229338	1143.14061769211
293.576957136592	141.023779221956	588.633613169323	1446.54954803804	235.448074839208	2049.15987352083	676.956158667143	141	1292.65364043197	1020.29953440094	162.227524858941	1453.20602592546	1087.15393683217	130	2429.58323329787	1076.02182792194	151.084936148072	1625.43292899372	636.348803570761	128.004650252251	1145.65777531784	1167.10844106415	170.518073130364	1634.37852334674	882.832117418261	141.677789907741	1556.80839793728	1510.48531903465	185.244119316935	2173.34875854717	1303.57234323079	139.510079634392	2324.9156336216	800.659108426275	150.571607011597	1127.85982604748	656.652170864537	128.585388717021	1464.11807131821	980.424799098659	139.21261319447	1945.21349826693	352.030428339577	127.106182896144	919.079453673238	687.245886879382	182.723863483927	1143.54934920057
293.679104712785	141.011749802608	588.635736608859	1447.26904423755	235.566534556881	2049.62213093766	677.339538754688	141	1292.66682427549	1020.73524785633	162.271151836793	1453.35278323278	1087.72767585661	130	2431.13653567447	1076.54607992955	151.123127125378	1627.14698589164	636.654007161391	128.001327222897	1146.43933003853	1167.62260707693	170.583532575319	1635.87369664386	883.050670570986	141.649531249532	1557.56672649748	1510.49301840243	185.298181430295	2174.791807575	1303.75810592769	139.494744341145	2327.11395731672	800.807548960824	150.559247014291	1129.16067191536	657.100478419318	128.554123345589	1464.99801909813	980.788074863846	139.198833526873	1945.94978087123	352.07651967464	127.072906728724	919.425695898649	687.48560523245	182.775790663465	1144.18913100751
293.775536671691	141.004650252251	588.766311417847	1448.00841160683	235.689527292496	2050.32938710746	677.706454504218	141	1292.91048888045	1021.13731396696	162.328182829805	1453.65980435592	1088.37119422404	130.001327222897	2432.82915055106	1077.17168014049	151.16356636017	1628.95852364388	636.963833325461	128	1147.3127666358	1168.26800484113	170.641633533025	1637.42161177423	883.162319147747	141.626788500392	1558.47172335944	1510.43334103786	185.347052245515	2176.28410886526	1303.90412417177	139.472711844777	2329.6610706903	800.920618502119	150.54992109234	1130.5084508034	657.586715939918	128.529299438446	1466.23279324283	981.128906845352	139.182529113536	1946.91958396995	352.118459717673	127.045373703441	919.852138514703	687.750806190522	182.832660177739	1144.99782640394
293.856613122982	141.001327222897	589.008555621597	1448.74076700478	235.811065696255	2051.26815394953	678.044213348198	141	1293.3597717791	1021.49873939825	162.392428382691	1454.11974228289	1089.06457219708	130.004650252251	2434.46136029465	1077.88208466983	151.202278528136	1630.70834127528	637.267103072516	128	1148.17272219586	1169.02701786235	170.692603940755	1638.87011513532	883.181099438327	141.60980002673	1559.44066509288	1510.3366177095	185.384437190585	2177.73539081157	1304.03812018661	139.44973802988	2332.32044130552	800.995802076421	150.544768296836	1131.79977064332	658.082751545543	128.512227741115	1467.68493273916	981.411002033611	139.167339822261	1948.03658217185	352.151275082961	127.025106444853	920.329285518577	688.009734185765	182.886369820086	1145.89454460394
293.917770049098	141	589.339770285947	1449.46085344894	235.927093271276	2052.42812157811	678.351241054439	141	1293.98833588128	1021.83198058713	162.459360764754	1454.73230744885	1089.77761628619	130.011749802608	2435.87593225034	1078.65393426269	151.235941983689	1632.27383501022	637.549385008389	128	1148.92717862271	1169.86252583784	170.736302687886	1640.10366634676	883.1259030531	141.597390611519	1560.40008938564	1510.23036849935	185.407673259252	2179.07650010852	1304.18312966809	139.431185282321	2334.87492726953	801.037353693074	150.543960585912	1132.94844526285	658.564598008749	128.503254290177	1469.207507115	981.613813191682	139.155310402913	1949.19756498867	352.171736082737	127.011749802608	920.823580411273	688.236944235691	182.930847074603	1146.78959645364
293.958493500288	141	589.729358697956	1450.16753243995	236.03737770416	2053.77719635107	678.630188698573	141	1294.7579049653	1022.15099989521	162.524239180388	1455.47791009368	1090.46658162464	130.023779221956	2436.97656008108	1079.44804179464	151.263323782165	1633.57320027177	637.795778068099	128	1149.51436798141	1170.71376150964	170.772267293598	1641.04676435434	883.024415528895	141.589772304236	1561.29548111103	1510.14050144794	185.416734623568	2180.25359713654	1304.36228124796	139.420857856898	2337.1570691077	801.05420794681	150.547744347825	1133.89197406451	659.016506682559	128.502979480611	1470.64594919611	981.732863228043	139.146455914597	1950.27433332157	352.178835633094	127.004650252251	921.29354275221	688.416177408848	182.963143752539	1147.58439258123
293.982272722244	141	590.141407686408	1450.85857287649	236.142233377408	2055.24660097959	678.882646120337	141	1295.61028147559	1022.46169586484	162.582465172456	1456.30115956088	1091.08258821389	130.04072345119	2437.71936990422	1080.20883737679	151.284044601976	1634.55151818066	637.993113506452	128	1149.90735849412	1171.50247147141	170.797983108528	1641.65452154792	882.916005792948	141.585904395085	1562.09380845999	1510.09051930435	185.414342035635	2181.21833427386	1304.60639292768	139.419254145747	2339.06103618544	801.063396393947	150.555603523607	1134.59206452685	659.428370099156	128.510879838369	1471.86172247702	981.775753505272	139.139003823653	1951.13584300111	352.17372708202	127.001327222897	921.695651627174	688.539118033947	182.983599945141	1148.18788623518
293.994022524852	141	590.536543930747	1451.5156199567	236.242011083343	2056.72464163227	679.104851922271	141	1296.46218400483	1022.75254899273	162.631093719005	1457.10100568055	1091.57448218792	130.061156926116	2438.09236402372	1080.86512721116	151.298181430295	1635.16200922676	638.133729394578	128	1150.10591748726	1172.14420400331	170.809067096923	1641.89758786858	882.848673402876	141.586873515174	1562.78345638758	1510.09975950589	185.405819017434	2181.92967178674	1304.94800809919	139.425938883122	2340.54798869117	801.082934641452	150.567744545469	1135.03287853826	659.800690178211	128.525976409092	1472.74855831835	981.76052331925	139.130209520281	1951.66496471831	352.159183168863	127	921.987888959792	688.608160687429	182.994022524852	1148.52829451027
293.998672777103	141	590.877790120535	1452.09683474785	236.333334491175	2058.06577809341	679.283053750835	141	1297.21537841423	1022.99055407969	162.667691237091	1457.74355756791	1091.90057799783	130.082403674188	2438.09036545214	1081.34464233199	151.305799737578	1635.35050115919	638.217304327256	128	1150.11984449428	1172.5667853746	170.800287783083	1641.75105829028	882.871692417665	141.593543332591	1563.35016989043	1510.18387650505	185.396199411046	2182.32918644667	1305.41774562789	139.439560152575	2341.59721718109	801.128883005513	150.58312075288	1135.2040949583	660.138371514704	128.545717252184	1473.24711450724	981.708246256393	139.118547631051	1951.78754362537	352.13634937786	127	922.136427806792	688.631360917891	182.998672777103	1148.56561482063
293.998672777103	141	591.138064401939	1452.54345245303	236.409336449924	2059.12695943533	679.398699211961	141	1297.77903340665	1023.13245510823	162.690071466871	1458.0962913233	1092.04242642363	130.101082211157	2437.71884662368	1081.5952830297	151.306613010723	1635.07164964508	638.253334745775	128	1149.96344073012	1172.73556368516	170.768231973646	1641.20842305072	883.02735167888	141.605925222952	1563.77401323902	1510.35370213996	185.388573862854	2182.35727044665	1306.03468635421	139.457714370397	2342.19734397389	801.211880378352	150.602602193599	1135.10238687797	660.451198549134	128.566329409194	1473.35205423322	981.64502503819	139.102409434054	1951.49223547218	352.106854538617	127	922.125331150873	688.622390457496	183	1148.29988064376
293.994022524852	141	591.302687407062	1452.78652674914	236.459272630179	2059.78662909729	679.428500804809	141	1298.08322413543	1023.13037543954	162.696883741917	1458.05649234765	1092.0090587355	130.1138973788	2437.00436946863	1081.59954362961	151.29991573803	1634.31045829893	638.260506953941	128	1149.65430919963	1172.6622348262	170.711725299781	1640.29380371043	883.343402914133	141.623465471039	1564.01995015965	1510.61934173004	185.383117578367	2181.96003626267	1306.80514309392	139.479005362898	2342.33087408667	801.336973470841	150.625461277496	1134.73064097565	660.750980990807	128.582205352422	1473.11513474997	981.597446432283	139.082403674188	1950.84693205299	352.07065387158	127	921.961773760826	688.597145909112	183	1147.77641337855
293.982272722244	141.001327222897	591.369465792971	1452.77382592278	236.472183577288	2059.9728619331	679.354103695762	141	1298.09441681249	1022.95157782759	162.68998559132	1457.57427514737	1091.83909727836	130.118459717673	2435.99809286717	1081.38748698792	151.284830350272	1633.09972687582	638.265265137471	128	1149.20801964754	1172.41025147315	170.632403786447	1639.06918993058	883.82402420155	141.643652057158	1564.04962302606	1510.98730334974	185.378198078772	2181.11899281777	1307.71789727597	139.501325204151	2341.99557113729	801.504813393646	150.650751607515	1134.11077106889	661.050119414106	128.588727001944	1472.63121037028	981.594637573877	139.061156926116	1949.98421319337	352.026955124449	127	921.678415488832	688.573646525092	183	1147.07371544167
293.959820723185	141.004650252251	591.347174310087	1452.48900415114	236.439345494324	2059.67846144124	679.167940199608	141	1297.81840099006	1022.58896059054	162.671102179822	1456.66821526055	1091.59089918662	130.1138973788	2434.77669182396	1081.0268118306	151.26078657068	1631.52692611225	638.293691970427	128	1148.64027564071	1172.07756444308	170.53545063688	1637.63158465998	884.446633343721	141.662303069276	1563.83124908032	1511.45441159073	185.367729022676	2179.85973984881	1308.73727893438	139.520343746387	2341.21455369185	801.708634216642	150.674332488624	1133.28534530382	661.358889823559	128.581534731035	1472.02166429291	981.662533071737	139.04072345119	1949.07774268097	351.976220778044	127	921.327482784657	688.568373795506	183	1146.29317325924
293.923747524246	141.011749802608	591.252984219488	1451.96224583688	236.358178001169	2058.96204874604	678.877086263503	141	1297.30135211598	1022.0671930526	162.645757787441	1455.42192771213	1091.3350368885	130.101082211157	2433.45018188751	1080.61807101778	151.228056615462	1629.73790112037	638.369431419999	128	1147.97200503606	1171.78217683469	170.429020338555	1636.11337146599	885.166979957834	141.674454460534	1563.36132916094	1512.01537268387	185.346516333135	2178.27551516651	1309.81451867707	139.532127607527	2340.06535914534	801.939867745952	150.691398689768	1132.32588935275	661.685760419999	128.560295223872	1471.41512653668	981.823892719076	139.023779221956	1948.30553716047	351.92189884465	127	920.972319785772	688.595362646415	183	1145.54085139768
293.874340400738	141.023779221956	591.106981466275	1451.27672738766	236.233308355686	2057.93461241135	678.50912877916	141	1296.61597368534	1021.44939767886	162.617060696686	1453.96940894299	1091.13880157082	130.082403674188	2432.14599703895	1080.27525113224	151.188136137596	1627.9180235297	638.506721219858	128	1147.2265660285	1171.63729991037	170.322222510112	1634.66137817242	885.921295081636	141.675786490605	1562.66317319574	1512.65067200231	185.308988443201	2176.50295104936	1310.8818144299	139.531326382464	2338.66136504525	802.185263540979	150.694892742634	1131.31595918682	662.031407691119	128.5271740494	1470.91744808069	982.086624552657	139.011749802608	1947.8015031007	351.868189202304	127	920.670664939954	688.663222407446	183	1144.90491002648
293.815715948506	141.04072345119	590.934728734013	1450.55312163319	236.074409403221	2056.74948781851	678.107859890281	141	1295.86036326668	1020.82631032855	162.591002576764	1452.4797289528	1091.05516912808	130.061156926116	2430.99970490948	1080.10314806791	151.144887823202	1626.26936428418	638.706319109755	128	1146.43274281031	1171.7296077035	170.224463328309	1633.42287545411	886.641961149264	141.665481009596	1561.80000691777	1513.33593395781	185.253684517014	2174.72073196207	1311.87038475082	139.515942934144	2337.16925279215	802.432638677828	150.682077505417	1130.34987483994	662.390979187884	128.486988944325	1470.59771914938	982.442875789416	139.004650252251	1947.62794340498	351.819837144009	127	920.461861245295	688.771857574629	182.998672777103	1144.44328919813
293.754029965642	141.061156926116	590.761388314948	1449.92495078393	235.893253922934	2055.57056359495	677.722242465718	141	1295.13112390321	1020.29323090348	162.570281826527	1451.1188711472	1091.1120293672	130.04072345119	2430.1403306937	1080.17748668522	151.101880377306	1624.97930373264	638.955827885209	128	1145.62549586466	1172.1067902372	170.143386877018	1632.52735543659	887.262936249289	141.646283785276	1560.85995466104	1514.03710228812	185.183485885345	2173.11076176225	1312.71550970786	139.484995907215	2335.78182819253	802.669663182007	150.651885296739	1129.51598416804	662.751564719901	128.445332480036	1470.47924381973	982.86292883556	139.001327222897	1947.760813696	351.780370157792	127	920.358011325886	688.914006097572	182.995349747749	1144.1775891743
293.696639260707	141.082403674188	590.606998739108	1449.51346819191	235.698825945905	2054.54775206177	677.398168517294	141	1294.50804252703	1019.93511846244	162.558278599624	1450.01798771438	1091.30690291568	130.023779221956	2429.67684769161	1080.5263569719	151.064502673146	1624.19209784981	639.227760495484	128	1144.8464276656	1172.76576106352	170.082229950902	1632.07129124645	887.73363366634	141.625059754879	1559.94589086462	1514.71621081526	185.106182896144	2171.82933529158	1313.371332145	139.441747592821	2334.70437976412	802.887678036436	150.60811822542	1128.88441022181	663.093823768301	128.406039282749	1470.54986851225	983.297102399737	139	1948.09845455416	351.749915625771	127	920.346874593853	689.075754556568	182.988250197392	1144.09883738365
293.647506191717	141.101082211157	590.482444447585	1449.39220586001	235.493053572417	2053.79067649978	677.160500161531	141	1294.03605863719	1019.79435351916	162.55571038852	1449.24281956332	1091.60487449309	130.011749802608	2429.66687865216	1081.11670256624	151.035529024564	1623.96717070945	639.482772063825	128	1144.13261200845	1173.6528749897	170.041506499712	1632.09196790374	888.020708440189	141.609673247646	1559.15472503502	1515.33183998913	185.031226505726	2170.97056594152	1313.81664783452	139.389766695988	2334.1248394797	803.08005290314	150.55711208047	1128.49542897022	663.398370099818	128.372956856517	1470.77079517584	983.684218567675	139	1948.48330642744	351.726136403815	127	920.396033553846	689.24086934937	182.976220778044	1144.17775777834
293.607588772763	141.113897378801	590.385397960362	1449.57866255964	235.268499202244	2053.34683814087	677.0098630829	141	1293.71036849114	1019.8687044224	162.562663519244	1448.77712902097	1091.94197973551	130.004650252251	2430.08409085601	1081.85695013264	151.016400054859	1624.24925558631	639.672731018837	128	1143.50211650036	1174.6702998236	170.017727277756	1632.54756016749	888.110826459091	141.608638882229	1558.55422790788	1515.84095417467	184.96807071424	2170.54076111025	1314.05355207994	139.336369707827	2334.17747481144	803.23797960703	150.506063369779	1128.34636880795	663.646613301399	128.346792287538	1471.08978438915	983.955871340014	139	1948.72459739052	351.701463236244	127	920.460532773506	689.390824450344	182.957949325913	1144.37248374331
293.57258093886	141.118459717673	590.301143923105	1450.02099797401	235.011197790971	2053.19741967994	676.921470694686	141	1293.48736203937	1020.10462150169	162.577293463506	1448.5320405132	1092.24012330971	130.001327222897	2430.82440945544	1082.6161547164	151.005977475148	1624.87862818625	639.750287712973	128	1142.95349398841	1175.69627439588	170.005977475148	1633.32086679571	888.006846233868	141.62583724118	1558.16382450717	1516.20018787291	184.922958868661	2170.43953607573	1314.10319646411	139.286149311173	2334.89818993712	803.349551642449	150.460138251054	1128.38288306426	663.827180938363	128.329392818393	1471.45455160484	984.051319540043	139	1948.63216092897	351.66714976249	127	920.491902520204	689.51138099511	182.932865598736	1144.63874984643
293.53545063688	141.113897378801	590.206767454153	1450.61673285296	234.703213450864	2053.25805484967	676.854192321185	141	1293.29375000556	1020.41800167435	162.595818686215	1448.36746567381	1092.41844803828	130	2431.7000141982	1083.24839183617	151.001327222897	1625.60249510454	639.674553219149	128	1142.45559335362	1176.601591412	170.001327222897	1634.22309702132	887.723321513707	141.661460007382	1557.94906595637	1516.37020366654	184.896613114289	2170.47160993297	1313.99832478529	139.24525483647	2336.2079179939	803.396580678547	150.422091604195	1128.50089554931	663.932537230571	128.319237299626	1471.81131037393	983.918895583203	139	1948.03139738146	351.611594347837	127	920.447480851573	689.587348120332	182.899869048056	1144.93037353537
293.487515963246	141.101082211157	590.076170307382	1451.2300584484	234.330106767712	2053.38384968394	676.761123667772	141	1293.04172932832	1020.70908101638	162.614093266832	1448.11702845261	1092.40832939935	130	2432.47014473502	1083.61996304991	151	1626.11976223168	639.417377556558	128	1141.95170671645	1177.26765247548	170	1635.01832785632	887.282913561636	141.710786458422	1557.82664794615	1516.31929461522	184.8861026212	2170.37012471846	1313.77522727474	139.217369340173	2337.9088132047	803.358603563696	150.391902454429	1128.55678517163	663.961152845918	128.315914270272	1472.10247246913	983.526274608621	139	1946.77872042147	351.523762885472	127	920.289291265989	689.606212798441	182.857411289131	1145.19521810647
293.423036007776	141.082403674188	589.890023120611	1451.72228333699	233.889712590233	2053.39490373547	676.602539730909	141	1292.65059332156	1020.8867568076	162.625321391544	1447.62349961162	1092.16682645825	130.001327222897	2432.86884649404	1083.63670151633	151	1626.1262361632	638.96799417995	128	1141.36541376107	1177.60603343668	170	1635.44975379199	886.708891055057	141.766490158964	1557.6810299233	1516.0198378543	184.882517733985	2169.83465191697	1313.46051013435	139.20322688006	2339.70626927069	803.210750271703	150.366531382368	1128.38513185914	663.911257717768	128.317643015785	1472.24787761004	982.858014694421	139	1944.75427917624	351.394769957033	127	919.985067418027	689.55421847369	182.803872670298	1145.36576206106
293.339416782778	141.061156926116	589.641093672303	1451.97951790323	233.396116186477	2053.09728556332	676.356852392151	141	1292.05943418	1020.88918910814	162.625360946264	1446.76248718655	1091.68236503207	130.004650252251	2432.64300516719	1083.25752455455	151	1625.35719502063	638.335404252363	128	1140.61123188124	1177.56389835905	170	1635.27033143105	886.024087693706	141.818255929337	1557.39019896604	1515.45010677443	184.8760898261	2168.57863966625	1313.06813993384	139.202418414088	2341.25540894651	802.929386942874	150.342124879833	1127.82203557112	663.779177066254	128.324340288479	1472.14941156428	981.91467746791	139	1941.86889388515	351.220347739869	127	919.50857867143	689.416231104951	182.739480628206	1145.35962502213
293.239656232297	141.04072345119	589.336152093494	1451.92487189271	232.882798598393	2052.30083626958	676.023610166677	141	1291.23506646485	1020.69186298325	162.610643088624	1445.45512784015	1090.97464335258	130.011749802608	2431.57884905115	1082.49986258777	151	1623.62062062154	637.54504636176	128	1139.60215313048	1177.12881543557	169.998672777103	1634.27000321008	885.247934244844	141.857940345879	1556.8409124222	1514.59406690391	184.856613122982	2166.36291288735	1312.59290963589	139.212835497611	2342.189926739	802.492427973648	150.315110541901	1126.71815367161	663.559814422932	128.336883657578	1471.67751621535	980.709428115395	139	1938.04867739847	351.001124982499	127	918.831625993815	689.178433852073	182.666289545141	1145.07384039682
293.132072655558	141.023779221956	588.996472919004	1451.52473557348	232.397010976679	2050.84227314894	675.624090989146	141	1290.17960578719	1020.31388550935	162.578973760841	1443.6814569715	1090.0942656349	130.023779221956	2429.5256165986	1081.44052397829	151	1620.82154079329	636.636768622523	128	1138.25965013835	1176.33147899243	169.994022524852	1632.30186767892	884.394457944433	141.878373820805	1555.93962731209	1513.44059260262	184.815889671792	2163.01994716556	1312.01251267804	139.229373538537	2342.15735856432	801.884875297243	150.282113991221	1124.95537937596	663.242042579605	128.356632159241	1470.68815143419	979.263750626452	139	1933.25135731223	350.742248738633	127	917.929036251282	688.825318859284	182.589772304236	1144.39910568067
293.028446629661	141.011749802608	588.651541511669	1450.77948721008	231.992650598583	2048.59503826451	675.197020199219	141.001327222897	1288.92420283602	1019.80738052355	162.532127607527	1441.47634452359	1089.10958617319	130.04072345119	2426.44535801344	1080.19980088449	151	1616.99624293359	635.660739785054	128	1136.54243448885	1175.23796940355	169.980945499347	1629.32436959865	883.475734736237	141.878207604466	1554.62622584277	1511.99126961635	184.750430226838	2158.49057133694	1311.29923461111	139.250101529684	2340.87701217787	801.103751787016	150.244241288845	1122.46890499778	662.816179947054	128.386708027804	1469.03638357259	977.608909040318	139	1927.47078388793	350.453121431745	127	916.774431895657	688.348307554581	182.51833268436	1143.23254242641
292.941108348882	141.004650252251	588.327373382224	1449.70788314208	231.715287190844	2045.47280162336	674.784549140468	141.004650252251	1287.51456025898	1019.23991192976	162.474023590908	1438.91334741314	1088.09786142355	130.061156926116	2422.41302794347	1078.92192505309	150.998672777103	1612.30940930955	634.671581395709	128	1134.45110116525	1173.94119218097	169.952516025141	1625.4071024409	882.503265459461	141.859145596866	1552.87309093692	1510.26816266299	184.660050212132	2152.82759728224	1310.43696136841	139.271750624993	2338.17047312698	800.16585471337	150.203483779124	1119.2603029238	662.275061799169	128.427957407255	1466.61198552686	975.782160575398	139	1920.76931246136	350.142871027382	127	915.354199831268	687.744782871238	182.461843165949	1141.50494063316
292.878738305691	141.001327222897	588.03870401502	1448.33549627068	231.592089307542	2041.43623154363	674.423040895174	141.011749802608	1285.99352225086	1018.6771503047	162.411275301921	1436.08501358255	1087.1275207663	130.083730897085	2417.63187526902	1077.74485100112	150.995349747749	1607.04894783113	633.719655689257	128	1132.04427189449	1172.54263426222	169.900042771343	1620.74421179733	881.489499032605	141.827133135329	1550.69613563792	1508.31599798792	184.548602131438	2146.21173100142	1309.42966925979	139.293345036904	2334.0159728984	799.109261374695	150.165305267563	1115.41613949342	661.619761093521	128.480411071863	1463.36409504012	973.834439663665	139	1913.29027823543	349.821599948054	127	913.673129596976	687.025714500719	182.429536188191	1139.19982168597
292.845205446723	141	587.781778705374	1446.67981985042	231.623756735441	2036.50278640078	674.129775187702	141.022451999059	1284.38939685727	1018.16306126967	162.350390126458	1433.09151873285	1086.24893219278	130.105732463407	2412.39540504651	1076.77608695716	150.989577420289	1601.5799343945	632.848386931405	128.001327222897	1129.42799716641	1171.13968957725	169.816433846167	1615.62068222435	880.456131161374	141.790621921506	1548.15759422832	1506.21523635381	184.423042863408	2138.94393996137	1308.31736311221	139.3151058043	2328.57728980902	797.997477174623	150.135939593248	1111.1121067223	660.866334890893	128.541966458143	1459.33331562175	971.831631887642	139	1905.27382401704	349.500177641918	127	911.766260826865	686.216986875212	182.427801880456	1136.37352070346
292.838110633966	141	587.535974131407	1444.75820220583	231.784257616636	2030.75498332981	673.901901188085	141.036073198939	1282.71094017188	1017.71845250577	162.299247016527	1430.02489510448	1085.48514757877	130.125647181409	2407.04732856462	1076.07233578679	150.980871030295	1596.29221259966	632.086633259382	128.005977475148	1126.73952878145	1169.81222548882	169.69795697304	1610.37830659748	879.432009300019	141.755351626317	1545.36359609036	1504.07269680579	184.291343737799	2131.42051032161	1307.16854349836	139.337155456123	2322.19281054912	796.907618103566	150.119607655062	1106.59876624665	660.048730929269	128.607571617309	1454.67025323783	969.857660657278	139	1897.0582831873	349.189289637206	127	909.708978024386	685.363138691136	182.457182613876	1133.16197825268
292.851356645157	141	587.272981450419	1442.60437071024	232.0250319758	2024.35978084957	673.721601712571	141.049407123508	1280.95943570917	1017.35047121432	162.260607285172	1426.98057478442	1084.8351329415	130.142238939629	2401.92225893163	1075.64006551432	150.971026351418	1591.53654778311	631.450168731993	128.016400054859	1124.12011709652	1168.62194299939	169.548794861272	1605.36321038097	878.45275360857	141.726831538958	1542.44923371223	1502.01478593966	184.162615100957	2124.07840692764	1306.06518520643	139.361334522007	2315.3159541958	795.922071499302	150.119607655062	1102.16335677942	659.215194248208	128.671817170195	1449.6174189517	968.007926936752	139	1889.03601932983	348.90139851135	127	907.604277160077	684.519874565508	182.513699587564	1129.76273106962
292.876465789784	141	586.966028968279	1440.27147368281	232.28958555692	2017.56665857135	673.562077034464	141.058624452232	1279.14533972566	1017.05778978528	162.238069410562	1424.06294358446	1084.28135138663	130.15462082999	2397.30751504338	1075.44814588565	150.96262229584	1587.58647823516	630.943141754721	128.035529024564	1121.6955132748	1167.61579442705	169.38092328249	1600.88956277177	877.559564781485	141.707551342446	1539.56509161728	1500.18050137392	184.047483974859	2117.35258945882	1305.09084067177	139.388581103764	2308.45025012208	795.118225825317	150.135939593248	1098.09558314742	658.423058173407	128.728848163207	1444.48730285979	966.38077425828	139	1881.61912709798	348.649018499557	127	905.577572011612	683.750400375054	182.587659333043	1126.41192324582
292.905846523204	141	586.601933505335	1437.8486179186	232.523684468076	2010.69512472372	673.401365019411	141.060358759967	1277.30472561822	1016.85021240997	162.230969860204	1421.39300977093	1083.80346285596	130.162239137273	2393.42297099977	1075.45266955439	150.958319777002	1584.62041911839	630.564015719694	128.064502673146	1119.56472360961	1166.83651954052	169.213854607458	1597.21320031292	876.795818881578	141.697516050867	1536.86080906362	1498.7065143556	183.956396628353	2111.61925463029	1304.3175177845	139.418108256816	2302.06966582095	794.559374151099	150.16663249046	1094.64342109231	657.729870724754	128.772475141059	1439.61642525503	965.06823385624	139	1875.18381057079	348.445884491673	127	903.756561984552	683.116854054744	182.66574807054	1123.34805332852
292.934192821633	141	586.186293820111	1435.45245103994	232.688111045595	2004.09345658023	673.227800319823	141.052740452684	1275.50447917499	1016.74573852957	162.238155286113	1419.09927749998	1083.38923387264	130.164807348377	2390.41293784408	1075.61246795967	150.96007471496	1582.72080936324	630.308366517376	128.101880377306	1117.79590723471	1166.32244317034	169.070995997929	1594.51435298885	876.201005480992	141.695955200381	1534.47035856237	1497.7068708716	183.899527114079	2107.15780198626	1303.79347233427	139.448935056557	2296.56325946794	794.288059599803	150.209461254271	1091.98745411674	657.181618364555	128.797965953074	1435.31610682305	964.138819848361	139	1870.02255547619	348.302053771512	127	902.249460798999	682.668921221365	182.734813220501	1120.7762099049
292.957949325913	141	585.73939957046	1433.21371149624	232.764549662489	1998.08766514119	673.039925285041	141.036056043485	1273.82556052048	1016.76801490643	162.25719634244	1417.29281576406	1083.03584745824	130.162239137273	2388.34561783444	1075.89869470307	150.968506295388	1581.87920340734	630.171445383547	128.143560600305	1116.42727583052	1166.1070305665	168.974581194478	1592.88759819622	875.807557514901	141.701818569705	1532.51298500805	1497.26345471557	183.8849776387	2104.13914756839	1303.54499567748	139.478158214719	2292.22020795192	794.325041926212	150.260641343704	1090.23355433836	656.809030230812	128.80388297012	1431.82636744075	963.628347928348	139	1866.30903495843	348.226254649465	127	901.130532136438	682.440583310475	182.785033617155	1118.83945357031
292.976220778044	141	585.293384544705	1431.25411726802	232.755872845803	1992.94136006914	672.848028053582	141.012815167644	1272.35854646105	1016.93918574967	162.284582948091	1416.05585453053	1082.74926322167	130.15462082999	2387.21011232391	1076.29377687542	150.982622493484	1582.00425268836	630.1460595401	128.183485885345	1115.46602097394	1166.20672393812	168.940519278762	1592.32975685569	875.632658816987	141.714200460066	1531.07677061611	1497.40324656959	183.917007255692	2102.60388597894	1303.56667357364	139.501914649426	2289.2032763544	794.662612241892	150.316315792888	1089.4011356533	656.623724765606	128.789561897495	1429.29249120659	963.53825593032	138.998672777103	1864.08566433439	348.22142571513	127	900.431222580993	682.446059787576	182.810259930057	1117.60400727983
292.986922974495	141	584.882197377358	1429.65998507758	232.681358626126	1988.80443464693	672.664017918663	140.987184832356	1271.17785632191	1017.26602177274	162.317121825125	1415.41664504405	1082.54267866671	130.142238939629	2386.9348093694	1076.79118483826	151	1582.94312135722	630.223929371726	128.214979589957	1114.89437390614	1166.62025975848	168.974581194478	1592.74902729898	875.678859300882	141.732547156245	1530.21280052544	1498.09923348803	183.99476067763	2102.46992854399	1303.83148228659	139.51717918475	2287.54636222635	795.269167517498	150.3736357399	1089.43005083113	656.617729360009	128.759655166241	1427.74568087381	963.829827881551	138.995349747749	1863.25883072459	348.285394779762	127	900.134991037178	682.67697555533	182.810710362794	1117.05241538389
292.989372272602	141	584.530982884234	1428.46510557261	232.568528512246	1985.69962099033	672.499028140276	140.963943956515	1270.32567003592	1017.73531883991	162.349162157795	1415.34198761814	1082.42554616484	130.125647181409	2387.3962961039	1077.38179193531	151.017377506516	1584.50459557557	630.392210142746	128.23368431937	1114.67394160112	1167.31652153381	169.070995997929	1593.97817495383	875.928049181965	141.756590935836	1529.92431656874	1499.26737917845	184.111893172406	2103.5451600549	1304.28915528754	139.522396329051	2287.16418526393	796.08994636446	150.428932425177	1090.19043885401	656.768280745873	128.71947013074	1427.10582124328	964.434686893073	138.988250197392	1863.61461703364	348.409885761787	127	900.182071690271	683.105952051631	182.789491139572	1117.09142149753
292.980945499347	141	584.252587344398	1427.64016125026	232.445227663581	1983.52910353497	672.357390422582	140.947259547316	1269.80964973692	1018.30605503374	162.376179554639	1415.74523948318	1082.4067227002	130.105732463407	2388.44426747146	1078.05918859754	151.031493704612	1586.4844498383	630.636557840754	128.237007348724	1114.75240470918	1168.24571047539	169.213854607458	1595.79919660281	876.348161643442	141.786059582633	1530.1644405742	1500.78633824115	184.257284255818	2105.55694786943	1304.88284199338	139.517020717033	2287.86581745159	797.057888481834	150.479213210359	1091.50300736986	657.037317286807	128.678056503203	1427.20152227139	965.260564146052	138.976220778044	1864.85435258447	348.581080369922	127	900.480783769558	683.689137763	182.752979856176	1117.57033867362
292.958493500288	141.001327222897	584.042271213804	1427.10247470538	232.333536731573	1982.09663614806	672.23410842172	140.939641240033	1269.59370720679	1018.91501301783	162.393379641904	1416.49285025298	1082.48461783204	130.083730897085	2389.92835768234	1078.80543091577	151.03992528504	1588.69616302019	630.938906186917	128.226729392565	1115.07366182445	1169.33462016435	169.38092328249	1597.97876076844	876.897781192358	141.820295442833	1530.8428072935	1502.51587911601	184.415669258532	2108.19208590439	1305.55553617091	139.503956932268	2289.39687184556	798.100817001305	150.52130824634	1093.16492215438	657.378654714925	128.641861332354	1427.8006120943	966.203015653541	138.95927654881	1866.63487741757	348.781246947952	127	900.925105726009	684.370176190294	182.706113488495	1118.30798849072
292.917770049098	141.004650252251	583.878816929702	1426.73801462377	232.24551919764	1981.14527536742	672.115201884021	140.941375547768	1269.60242538646	1019.48664384109	162.397941980776	1417.41989478714	1082.64382911812	130.062484149013	2391.69325071922	1079.58468395317	151.041680222999	1590.97042398656	631.276144374088	128.208592330198	1115.57200455376	1170.49259212012	169.548794861272	1600.28359425947	877.53211452146	141.856867114757	1531.83678650012	1504.31837147785	184.569919637434	2111.13696872535	1306.25751873063	139.487100616413	2291.47331163323	799.150148210699	150.552992563655	1094.97445819702	657.741608924542	128.618131020519	1428.64316560755	967.158665557285	138.938843073884	1868.60574533458	348.990642785324	127	901.405884949189	685.088379249451	182.65471055853	1119.11464337291
292.857940345879	141.011749802608	583.73292352391	1426.43163100726	232.186208181773	1980.41453998771	671.985555479019	140.950592876492	1269.73936871003	1019.95130079809	162.387667499386	1418.36150378892	1082.85685409521	130.045373703441	2393.59052154417	1080.34811602452	151.03737770416	1593.16261347409	631.621226372078	128.188934303745	1116.17441402467	1171.62561320492	169.69795697304	1602.50474788501	878.208923663203	141.892489880959	1533.00833177267	1506.07777633509	184.7037293005	2114.11246564826	1306.95016683376	139.47119848074	2293.81680080075	800.147686561261	150.571930920657	1096.75403111302	658.07820017237	128.608463259058	1429.48245458562	968.037456466065	138.917596325812	1870.45724712454	349.191112454623	127	901.829008777561	685.786856434572	182.601775531139	1119.82215922989
292.778859701044	141.023779221956	583.575266788253	1426.08958537478	232.154543661164	1979.68823676119	671.830913659667	140.963926801061	1269.90944223531	1020.25807658715	162.363190442512	1419.18093699269	1083.08577730042	130.035529024564	2395.48642780359	1081.03739163281	151.028973648582	1595.15535663571	631.944809187375	128.17478710603	1116.80287695346	1172.64450945168	169.81510662327	1604.47583137918	878.893993260878	141.922443019025	1534.2223407822	1507.71479768813	184.803356820662	2116.8977634881	1307.6070030183	139.460166171813	2296.18042931695	801.049282841195	150.575912230209	1098.36232182793	658.348746014193	128.611791026013	1430.11697924609	968.771082128424	138.897590565946	1871.94650799813	349.369229968859	127	902.122434431022	686.416317724919	182.550546186518	1120.29753900153
292.684877040245	141.04072345119	583.385241322936	1425.66175087363	232.146831878282	1978.82474019425	671.647217819461	140.977548000941	1270.03838127489	1020.38857074142	162.326618770589	1419.79107629751	1083.29019372103	130.035529024564	2397.26674409651	1081.5995447365	151.019128969705	1596.86446588378	632.217623715128	128.17068556929	1117.38147701595	1173.4798833849	169.895392519092	1606.08521660045	879.561948729268	141.942876493951	1535.36094613062	1509.18680913024	184.859863494528	2119.34599271632	1308.20972546477	139.45735709221	2298.35923552088	801.826073564071	150.563263278904	1099.7013100417	658.526093770274	128.624951161652	1430.40733826923	969.318017235282	138.881452368949	1872.91391093728	349.515597970078	127	902.237892224505	686.942467857298	182.502360344562	1120.45494157565
292.583009080793	141.061156926116	583.155992948632	1425.14011978992	232.159170099694	1977.77168146416	671.439098709249	140.988250197392	1270.09019521124	1020.35559267053	162.281237201061	1420.16881971656	1083.43800050596	130.045373703441	2398.84253509836	1082.0058902576	151.010422579711	1598.24314865958	632.417880640271	128.177334686911	1117.84171014946	1174.0948212362	169.939438999636	1607.27832287825	880.196839803085	141.951114333191	1536.32907309813	1510.48840110871	184.870286074239	2121.37482693854	1308.74990302183	139.462364622648	2300.19155961468	802.467779833905	150.533342403289	1100.71717533498	658.597284309281	128.6430486693	1430.28598183129	969.665525337813	138.869790479719	1873.29074191698	349.625643262778	127	902.15214383105	687.344294972252	182.457714370397	1120.2559024737
292.481493592353	141.082403674188	582.892280380948	1424.54509786349	232.187629798524	1976.54534232763	671.217796280239	140.995349747749	1270.06393482768	1020.19297741087	162.232089897587	1420.34343025262	1083.50911373191	130.062484149013	2400.17701414581	1082.25377918606	151.003323029354	1599.30147133534	632.533410886172	128.191454359776	1118.14432869399	1174.48382580854	169.951188802244	1608.06686730264	880.79255641101	141.947526746202	1537.07686704952	1511.6389068577	184.837558622329	2122.97910473085	1309.22973923122	139.475612671666	2301.59696034613	802.980660952635	150.489379098522	1101.4094108815	658.56598538296	128.660659803406	1429.76090894531	969.830084376386	138.862323399243	1873.10100269079	349.700156831139	127	901.865123613889	687.619583619258	182.416205170911	1119.71049017367
292.388029688479	141.102409434054	582.60701194622	1423.91373509808	232.226741810419	1975.20560195423	670.998138517273	140.998672777103	1269.98529906229	1019.94775161744	162.183050304197	1420.37677940691	1083.50202407973	130.082403674188	2401.25474856492	1082.3670771586	150.996676970646	1600.07942949486	632.565746783216	128.206840867009	1118.270722846	1174.67066567642	169.935571795907	1608.49722555299	881.35057211174	141.934192821633	1537.59420083214	1512.66964903665	184.768231973646	2124.2043942329	1309.65976131312	139.49420016677	2302.56739149829	803.383682514622	150.435695648621	1101.82307391307	658.450423920498	128.674904893271	1428.90687195232	969.848775685886	138.858194337653	1872.4518514557	349.74193269566	127	901.401048177592	687.779375358308	182.376717900755	1118.87319559288
292.308194225395	141.118547631051	582.317777405549	1423.28664860975	232.267880558816	1973.83125993833	670.794102008674	141	1269.89352351252	1019.67028282701	162.137938458618	1420.34488995668	1083.42998882009	130.101082211157	2402.09767644804	1082.38863020229	150.988250197392	1600.64644948585	632.526957087284	128.216306812854	1118.23038009217	1174.69997181306	169.896009351275	1608.6476329619	881.87638523885	141.914941880018	1537.91296118458	1513.60961858591	184.67180001474	2125.13990218356	1310.05205642377	139.516222412941	2303.16973317543	803.701706990279	150.379067002845	1102.03953915848	658.28043347269	128.684091291949	1427.85517412517	969.775851959617	138.856439399695	1871.5166879425	349.757259657339	127	900.804764291246	687.848154925327	182.337822360995	1117.83459815718
292.244469088175	141.130209520281	582.043074222238	1422.69881942239	232.301945603018	1972.51062467076	670.617351475639	141	1269.83440435434	1019.40924330644	162.098803729047	1420.32882439052	1083.31999443815	130.1138973788	2402.7374476523	1082.37136585105	150.976220778044	1601.07687314183	632.440091909097	128.216306812854	1118.0474890263	1174.62996949251	169.836693597807	1608.59905610604	882.380204185051	141.894267536593	1538.0891537769	1514.48492023839	184.559229858837	2125.8868542594	1310.42039172386	139.537743970579	2303.52072927354	803.963734722543	150.328088313172	1102.15700799651	658.094316080424	128.689094015213	1426.77631699556	969.673452395266	138.856439399695	1870.51433207735	349.75446554679	127	900.141491655394	687.858940449179	182.298274905895	1116.71231001141
292.197454552599	141.137676600757	581.803740236331	1422.18642748399	232.319781611943	1971.34001336306	670.479770784218	141	1269.85815511776	1019.21242092663	162.067134401264	1420.40636776454	1083.20724244554	130.118459717673	2403.23830527887	1082.37217656288	150.95927654881	1601.46051350867	632.332432990793	128.205513644112	1117.76681138168	1174.52595998586	169.760181164076	1608.44706326708	882.870201039325	141.874352818591	1538.19262265506	1515.30906723573	184.440770141163	2126.55332747523	1310.77223762458	139.553252383689	2303.76389060132	804.195023588923	150.288167835306	1102.27791609239	657.931317452943	128.690496482158	1425.85197117387	969.600679984005	138.858194337653	1869.67086043953	349.742280163034	127	899.485757383751	687.847506287369	182.256398176291	1115.6334697345
292.165943692532	141.141805662347	581.621220313214	1421.78788229432	232.315637560822	1970.42742757847	670.393139686665	141	1270.01659691748	1019.12268204325	162.042050674087	1420.65339326786	1083.13282782585	130.1138973788	2403.69239239214	1082.44859546278	150.938843073884	1601.89831384828	632.236603816321	128.186804107525	1117.44689584819	1174.45643121012	169.672061872601	1608.29416110837	883.354092444447	141.856433837474	1538.29148442408	1516.09612162499	184.326872762363	2127.23768212641	1311.11582371011	139.558426130466	2304.04449016282	804.421340555625	150.263168255366	1102.49067985981	657.826286328095	128.690783757469	1425.2449121166	969.606756817118	138.862323399243	1869.18035614778	349.730787411113	127	898.909392665176	687.848658058666	182.212701107848	1114.7157454953
292.148024711415	141.143560600305	581.516512521875	1421.54567287822	232.291764597228	1969.8839680312	670.369588194466	141	1270.35864214498	1019.17345722323	162.022451999059	1421.13389987295	1083.13645361259	130.101082211157	2404.23373228107	1082.65190222154	150.917596325812	1602.51380266634	632.183051552766	128.165584884303	1117.16518408888	1174.48153750239	169.57844674192	1608.25748876894	883.83724916895	141.840728917759	1538.44937323774	1516.85957714764	184.225790551206	2128.03375074782	1311.46107269317	139.548003550754	2304.51328797419	804.668146714215	150.251418452758	1102.87278426125	657.806212944178	128.69057888294	1425.07976823074	969.72399250384	138.868463256822	1869.18206515383	349.728513736177	127	898.473416764907	687.891732600148	182.16821661242	1114.05526380472
292.143915933765	141.143560600305	581.5053520266	1421.50556036802	232.256486089669	1969.79977703468	670.420339765898	141	1270.9167672272	1019.38421606415	162.007099550358	1421.88215995813	1083.24639125022	130.082403674188	2405.01256724762	1083.01124015666	150.898917788843	1603.42753911593	632.19596311698	128.146906347334	1117.00490899295	1174.63999930856	169.486055931226	1608.44773202261	884.324671808219	141.826011060119	1538.72875620351	1517.61472723272	184.143386877018	2129.03083880599	1311.82193028882	139.519050582022	2305.32648197984	804.957673441103	150.249315781388	1103.48551144246	657.889373474443	128.689456534572	1425.43073368522	969.968948979551	138.875474893801	1869.74484185234	349.744646730092	127	898.223065116933	688.001072668446	182.124454348275	1113.71652626981
292.152883822482	141.141805662347	581.596298953304	1421.70768138032	232.224035613248	1970.22773633304	670.551672720833	141	1271.697757011	1019.75309497996	161.992900449643	1422.89324669073	1083.47333407241	130.061156926116	2406.16713334105	1083.52541854069	150.8861026212	1604.72936648311	632.286322917318	128.134063654841	1117.04079493568	1174.93815049648	169.400844856123	1608.94881000202	884.814528252421	141.81008620677	1539.18230919224	1518.36580794678	184.082229950902	2130.29704929854	1312.20461063703	139.471914074536	2306.62026529127	805.299248274827	150.250508614521	1104.36566984403	658.083297812174	128.68451900701	1426.32113853448	970.337129456049	138.881190511088	1870.86629739297	349.785370181282	127	898.185534457652	688.19017010967	182.084936148072	1113.72979660779
292.176114328927	141.137676600757	581.789545828375	1422.18008045345	232.209644488122	1971.16955591137	670.765042919954	141	1272.68034759119	1020.26358490668	161.977548000941	1424.12140312773	1083.80678894513	130.04072345119	2407.79020008016	1084.1607754376	150.881540282327	1606.44932975435	632.452178009794	128.127777377629	1117.32361150428	1175.35215903945	169.326872762363	1609.79969512983	885.30263209708	141.79105993639	1539.8544125708	1519.1095123364	184.041506499712	2131.87472997167	1312.60753671007	139.409691783384	2308.49373739944	805.688284049216	150.248757151332	1105.52117559623	658.384208622798	128.672693960354	1427.7248268726	970.807151154974	138.880740078351	1872.47847374271	349.85417333544	127	898.370408971366	688.461306464311	182.052473253798	1114.09084770915
292.215367971495	141.130209520281	582.078779294755	1422.92564356739	232.22552335232	1972.5870110025	671.055341602795	141	1273.82737352154	1020.88267988581	161.95927654881	1425.50063555293	1084.22075182476	130.023779221956	2409.90508374232	1084.86138009624	150.884775398303	1608.54368099684	632.679306557273	128.12618865601	1117.86843822155	1175.83695744567	169.265715836247	1610.984548138	885.77295669495	141.767822189035	1540.75757114884	1519.82095797962	184.017727277756	2133.74982146378	1313.00610599944	139.33756254096	2310.94892494402	806.096612537825	150.238334571621	1106.91253699166	658.776170625118	128.648562267385	1429.57630054554	971.343568306637	138.869690148487	1874.4709118464	349.949273264275	127	898.773333441091	688.803446599714	182.028429474207	1114.76538792155
292.270366088497	141.118547631051	582.45284627411	1423.91691009371	232.277565970087	1974.40756300504	671.40855853889	141	1275.0910176026	1021.56946359763	161.938843073884	1426.95845299406	1084.68250021865	130.011749802608	2412.46506480358	1085.56995956646	150.892940313696	1610.90925105252	632.946347357394	128.125647181409	1118.65341867517	1176.34373533399	169.216560804629	1612.44333580329	886.209720012471	141.738501138721	1541.87349778299	1520.47320402578	184.005977475148	2135.86244795781	1313.36966731343	139.262370089217	2313.88567531624	806.486626084921	150.216306812854	1108.46297422414	659.230865043749	128.609074997228	1431.77231242512	971.900936716957	138.845646368896	1876.70116473488	350.063175450249	127	899.373587108985	689.190685766934	182.013077025505	1115.69134179686
292.341142621001	141.102409434054	582.897002250874	1425.0939955207	232.363729009824	1976.54474446117	671.803828848845	141	1276.42754153269	1022.27958259163	161.916269102915	1428.43998522187	1085.16060483882	130.004650252251	2415.37343276659	1086.24133991881	150.901196270953	1613.41920643727	633.232725819248	128.123109969924	1119.63355769401	1176.83257933189	169.176910446619	1614.09636399388	886.593461164219	141.704117682038	1543.14975119932	1521.03624211503	184.001327222897	2138.11496499554	1313.66328141488	139.190261526642	2317.1128286808	806.817246398404	150.183485885345	1110.06999053967	659.713072756992	128.554129173849	1434.18316722589	972.436309898172	138.808880955783	1879.02232515921	350.183485885345	127	900.137002498773	689.589162583092	182.004650252251	1116.78917868354
292.42542019577	141.082403674188	583.393190663047	1426.37049851638	232.474547702539	1978.90384759778	672.213924990226	141	1277.79853837224	1022.96918475482	161.892940313696	1429.91249965333	1085.63307793223	130.001327222897	2418.49872998194	1086.85624656516	150.901986826423	1615.9481554361	633.521590296815	128.115224601697	1120.74757870996	1177.2843156445	169.143654075904	1615.85869152201	886.912703201446	141.666739977878	1544.51479946393	1521.49566721222	184	2140.40137182369	1313.86873574082	139.126986822159	2320.39944585312	807.059995322305	150.143560600305	1111.63534794934	660.182256016797	128.48641104349	1436.67083522086	972.914536763414	138.764040860857	1881.30699406537	350.295364740013	127	901.020552984275	689.961566150579	182.001327222897	1117.97306506107
292.518876858735	141.061156926116	583.919058257716	1427.64375591156	232.595373815699	1981.38945790139	672.605990936489	141	1279.16933387956	1023.59615186468	161.868375343444	1431.36326691338	1086.08790381339	130	2421.71004139944	1087.41506477373	150.888796400517	1618.4049273791	633.802006060252	128.101082211157	1121.93802835482	1177.69492056678	169.114159236662	1617.66039552546	887.168007516391	141.629142340084	1545.89827414916	1521.85597745576	184	2142.63741785618	1313.98972750136	139.076252475754	2323.53893413976	807.207006203648	150.101880377306	1113.08729121719	660.605312704422	128.413035802101	1439.10744773811	973.318168786137	138.717886008779	1883.46702086244	350.386291432402	127	901.977561126022	690.277374577024	182	1119.16629473368
292.61582444608	141.04072345119	584.448026259353	1428.81789778576	232.709729493324	1983.90582594533	672.949090009623	141	1280.50123132689	1024.12852156847	161.841361005512	1432.78625565556	1086.51680322107	130	2424.87290636424	1087.92453013158	150.856613122982	1620.72385444234	634.065869229566	128.082403674188	1123.14662021499	1178.0675100617	169.087053926439	1619.44185612746	887.369385357716	141.596086106298	1547.23993446155	1522.13522717716	184	2144.76632714015	1314.04692424786	139.040179276815	2326.3816672411	807.267920327243	150.064502673146	1114.38997880022	660.956700885722	128.344338182257	1441.39212022621	973.645177664771	138.679261754191	1885.45659630293	350.447336686431	127	902.962866457806	690.516018657937	182	1120.30769628624
292.712549262466	141.023779221956	584.952111847592	1429.82213969488	232.802812646287	1986.36823642599	673.221236661044	141	1281.75567774348	1024.54890179012	161.808522922548	1434.17944555256	1086.9183348537	130	2427.88028334556	1088.39668599562	150.803183097375	1622.869642733	634.308894967602	128.061156926116	1124.32799224597	1178.41453050768	169.062484149013	1621.16379556147	887.536456302402	141.568980796075	1548.50183615617	1522.36131347763	184	2146.7697396987	1314.06993072555	139.017727277756	2328.85760715314	807.267416681754	150.035529024564	1115.54558665468	661.226053290987	128.289842791615	1443.4710116311	973.910154093501	138.654810889762	1887.28552752553	350.478215458744	127	903.942658928411	690.67271299392	182	1121.36771733907
292.803960583676	141.011749802608	585.403638995496	1430.61458722628	232.864234130039	1988.7023423162	673.40960405279	141	1282.89196700292	1024.85097011971	161.76860793733	1435.53260011696	1087.29178983692	130	2430.65682397462	1088.83836102907	150.729633911503	1624.83246856499	634.528628199954	128.04072345119	1125.44647562539	1178.74772040417	169.04072345119	1622.80687306947	887.689295007943	141.54929963609	1549.66672228735	1522.56250560091	184	2148.65346396389	1314.08528338984	139.005977475148	2330.95795665919	807.23654335517	150.016400054859	1116.57971056848	661.412986295627	128.257996546417	1445.33335479728	974.132120573027	138.647343809286	1888.99646404425	350.483668684318	127	904.89242791179	690.752674225634	182	1122.3403005106
292.889166851605	141.004650252251	585.780947866255	1431.19295607876	232.888292968735	1990.8554792942	673.516985206347	141	1283.87692213781	1025.04513114518	161.721562471709	1436.83106920604	1087.64281183298	130	2433.17696169591	1089.25602274743	150.640306310128	1626.62797300169	634.727730825598	128.023779221956	1126.48526403952	1179.08542504668	169.023779221956	1624.37933129151	887.847519280775	141.5352032347	1550.73773905876	1522.76383629143	184	2150.44710532737	1314.11155923499	139.001327222897	2332.72403130784	807.206200716432	150.005977475148	1117.53360726297	661.525814861662	128.252892802516	1447.00407008883	974.330158485851	138.657330945792	1890.65240972678	350.472170370176	127	905.796936908735	690.770283949837	182	1123.24095932133
292.966922776851	141.001327222897	586.068386255509	1431.58578039515	232.874959044166	1992.78576453564	673.559035614396	141	1284.68430697355	1025.15273447379	161.669093817569	1438.04863960845	1087.97931880448	130	2435.45458914816	1089.65634697231	150.543179575217	1628.28834676048	634.914431764175	128.011749802608	1127.44122077125	1179.44876745588	169.011749802608	1625.90928014855	888.022031090005	141.523085901974	1551.72591572311	1522.98039210041	184	2152.18310519261	1314.15198791192	139	2334.21503015869	807.200163943065	150.001327222897	1118.44860287804	661.576689094019	128.274490342913	1448.52642532059	974.516698035741	138.681385094779	1892.31578978079	350.452706084912	127	906.645276533728	690.741322719109	182	1124.09341263488
293.037266032073	141	586.256875619165	1431.84051144669	232.828061676865	1994.45935001764	673.558667754012	141	1285.29487103743	1025.20106640511	161.616519581224	1439.14831405735	1088.31165541858	130	2437.54333956956	1090.0443249156	150.445420393414	1629.86204609429	635.10088820393	128.004650252251	1128.32936890094	1179.85673048982	169.004650252251	1627.44497002756	888.218747711023	141.508314327039	1552.65784708765	1523.21955732086	184	2153.90564985607	1314.20358728493	139	2335.51743670693	807.23529564779	150	1119.36746230839	661.581089688115	128.315644150416	1449.95383304185	974.698398230844	138.714633737349	1894.03920731425	350.433599832882	127	907.431702618273	690.682425891046	182	1124.92383344859
293.09975498826	141	586.346231520385	1432.01777827409	232.754203688928	1995.85782759016	673.542896899564	141	1285.70163702159	1025.22067438945	161.568547518792	1440.09108055294	1088.64827213441	130	2439.50064613008	1090.41938470063	150.356000071488	1631.3878788623	635.301598156445	128.001327222897	1129.17119227723	1180.31877344336	169.001327222897	1629.02987654021	888.435689869987	141.486323130112	1553.55987569504	1523.47849650265	184	2155.64718848815	1314.25435402449	139	2336.7175059163	807.315445237066	150	1120.32254926253	661.554986691424	128.368823105218	1451.33162291009	974.875439541859	138.752011441509	1895.85018979969	350.419523393091	127	908.152141522819	690.607459945221	182	1125.75211508796
293.153057545769	141	586.344846983889	1432.17938656863	232.660312069993	1996.98478970926	673.536952831633	141	1285.9126024118	1025.24107051367	161.529835350826	1440.84618775929	1088.98974440238	130	2441.3721034929	1090.77068091261	150.282390700671	1632.88692885786	635.525446331259	128	1129.98721382741	1180.82820725588	169	1630.69256717743	888.66664527451	141.454026452177	1554.46058994119	1523.74694052837	184	2157.43571062475	1314.28867231515	139.001327222897	2337.90061805286	807.434084881442	150	1121.33508197481	661.514024988578	128.423113621331	1452.69685971276	975.044024903193	138.788089447622	1897.75147709611	350.413390776422	127	908.806624347662	690.526054407925	182	1126.59032537207
293.196293812079	141	586.271209554372	1432.37767820232	232.554667519964	1997.87569147913	673.560407369533	141	1285.95547293576	1025.28787099624	161.503704722914	1441.40826951939	1089.33112631607	130	2443.16460295884	1091.08326078569	150.228685865499	1634.3467676247	635.777181452168	128	1130.78535298055	1181.36573405871	169	1632.42958985008	888.905127548544	141.411084201983	1555.37339216619	1524.01702663753	183.998672777103	2159.27266836736	1314.29436675204	139.004650252251	2339.11900853351	807.577839439348	150	1122.40428994505	661.474885880545	128.469643458514	1454.07110391361	975.201536885427	138.819766524028	1899.72083787709	350.416452307054	127	909.39809094856	690.446456406338	182	1127.44338457588
293.229924953821	141	586.155711991562	1432.65421109589	232.445332480036	1998.61434696823	673.626220110122	141	1285.88761332677	1025.38211321104	161.48937896058	1441.81393502832	1089.66169714131	130	2444.85192039646	1091.34154702927	150.196816902625	1635.73327729726	636.051554475183	128	1131.55991184687	1181.90164771207	169	1634.20900048284	889.147078397319	141.360396331964	1556.30177431347	1524.28585531914	183.995349747749	2161.14742639413	1314.26670048726	139.013077025505	2340.39689284487	807.732401312163	150	1123.51620384758	661.452989383056	128.500779129891	1455.46274722285	975.347783321464	138.844596121488	1901.71945764331	350.428834197415	127	909.935023465674	690.375409684404	182	1128.31027184465
293.255070953394	141	586.036794196262	1433.02137302293	232.339687930007	1999.32114423231	673.735867278309	141	1285.79026455066	1025.53131026806	161.485340871281	1442.14277842168	1089.96913961174	130	2446.38692950072	1091.53771372696	150.185067100016	1637.00492543234	636.337427831953	128	1132.29359357029	1182.40500898365	169	1635.97984574117	889.395342252611	141.307670868811	1557.23587270674	1524.56413261271	183.986922974495	2163.03472013527	1314.21594172725	139.028429474207	2341.72352864255	807.888787044282	150	1124.64266253932	661.463421946885	128.513161020252	1456.86816625758	975.489681870547	138.862061541382	1903.69952416527	350.451309955184	127	910.429313702848	690.321362292764	182	1129.1857309154
293.273746361876	141	585.959125780413	1433.47133713809	232.244469088175	2000.13946954203	673.884045082788	141	1285.76423514517	1025.73476099911	161.487106178634	1442.51026911153	1090.24781429206	130	2447.72773993774	1091.68294861085	150.189833811581	1638.1374928904	636.620374367099	128	1132.96867988222	1182.85631002901	169	1637.68855294193	889.65534719805	141.260086094511	1558.16048732038	1524.86620519915	183.970243302896	2164.90639196755	1314.16012996989	139.052473253798	2343.06966307349	808.042773123515	149.998672777103	1125.75437667323	661.518732659131	128.504908191481	1458.2767409304	975.639203438831	138.870895399474	1905.61350016773	350.484575753208	127	910.895823210135	690.292942107925	181.998672777103	1130.0631630324
293.288694854226	141	585.963425461535	1433.97008694258	232.16463362509	2001.20473416954	674.057746038396	141	1285.90952411173	1025.97736088834	161.49202098852	1443.04067892502	1090.49684610792	130	2448.85600074584	1091.80078542017	150.206138224917	1639.13391683823	636.887031548014	128	1133.5750263183	1183.24539981017	169	1639.29061580982	889.934513903608	141.224463328309	1559.05643430204	1525.2050670696	183.941549271054	2166.73043762261	1314.12175115047	139.084936148072	2344.39446026168	808.193960833538	149.994022524852	1126.82203454757	661.625582460147	128.47753825405	1459.67728571911	975.808954635578	138.870381449723	1907.42331582979	350.529835350826	127	911.351713583214	690.297382474887	181.995349747749	1130.93446311001
293.299508653192	141	586.078265630037	1434.46423369525	232.102663425828	2002.61245215395	674.238334571621	141	1286.30231818713	1026.23102987358	161.49867479585	1443.83298715888	1090.72185006626	130	2449.78668746425	1091.92406130501	150.229013249328	1640.0286040366	637.125264362092	128	1134.11732425044	1183.57235688656	169	1640.75943916308	890.233743785231	141.205523292619	1559.91373946675	1525.57931812148	183.898663797069	2168.48058552457	1314.11644344863	139.123127125378	2345.66406322458	808.340662226139	149.983599945141	1127.8244365268	661.78088217352	128.434254319901	1461.05843598913	976.004085892353	138.860472819763	1909.10119574945	350.587676488498	127	911.814122886166	690.335461780106	181.988250197392	1131.79146864671
293.305799737578	141	586.314235287149	1434.89984516474	232.058450728946	2004.3984106508	674.409972371585	141	1286.97841977858	1026.46532554584	161.508629902195	1444.93336536104	1090.92704576842	130	2450.5606036561	1092.07752622959	150.255158866772	1640.87020912385	637.324545528828	128	1134.61410955095	1183.83848300891	168.998672777103	1642.08235041791	890.542857262794	141.204906643543	1560.72350187122	1525.96244751426	183.841343850058	2170.12352944994	1314.14100150296	139.162239137273	2346.84402144739	808.474593930688	149.964470975436	1128.74380236275	661.969599874287	128.379351357186	1462.41193665974	976.218781265912	138.838282319426	1910.63354775345	350.655915809517	127	912.299229717541	690.39994743574	181.974893555147	1132.62793063835
293.30794023362	141	586.65960504234	1435.23310140836	232.028429474207	2006.52643194071	674.560577144477	141	1287.92089608856	1026.65062745069	161.525706289236	1446.31920188211	1091.11260718115	130	2451.22105754214	1092.27032410445	150.280809486	1641.70013066301	637.477525075763	128	1135.08712381925	1184.04261021223	168.995349747749	1643.25524301272	890.839578117923	141.221211056879	1561.47828595324	1526.30757803436	183.771930966684	2171.622432524	1314.17497460391	139.196301052989	2347.90033887065	808.579839756823	149.934170103957	1129.56533593134	662.16522269521	128.317555102407	1463.72451519143	976.430132765259	138.803872670298	1912.0143436445	350.730250743686	127	912.816040746996	690.472966487867	181.953299073663	1133.4354353874
