Light	Light	Light	Light	Light	Light	Light	Light	Light	Light	Light	Light	Light	Light	Light	Light	Light	Light	Light	Light	Light	Light	Light	Light	Light	Light	Light	Light	Light	Light	Light	Light	Light	Light	Light	Light	Light	Light	Light	Light	Light	Light	Light	Light	Light	Light	Light	Light
Optode1-730nm	Optode1-Ambient	Optode1-850nm	Optode2-730nm	Optode2-Ambient	Optode2-850nm	Optode3-730nm	Optode3-Ambient	Optode3-850nm	Optode4-730nm	Optode4-Ambient	Optode4-850nm	Optode5-730nm	Optode5-Ambient	Optode5-850nm	Optode6-730nm	Optode6-Ambient	Optode6-850nm	Optode7-730nm	Optode7-Ambient	Optode7-850nm	Optode8-730nm	Optode8-Ambient	Optode8-850nm	Optode9-730nm	Optode9-Ambient	Optode9-850nm	Optode10-730nm	Optode10-Ambient	Optode10-850nm	Optode11-730nm	Optode11-Ambient	Optode11-850nm	Optode12-730nm	Optode12-Ambient	Optode12-850nm	Optode13-730nm	Optode13-Ambient	Optode13-850nm	Optode14-730nm	Optode14-Ambient	Optode14-850nm	Optode15-730nm	Optode15-Ambient	Optode15-850nm	Optode16-730nm	Optode16-Ambient	Optode16-850nm
359.188934303745	139.259721205645	798.633886527197	1687.35078138556	173.926281898014	2550.59202236451	1048.71887221595	138	2190.33695638001	1747.22534050504	146.998672777103	2520.76496046099	1679.55054006867	127	3758.34720736758	1511.29792132067	136.011749802608	2248.92294789414	839.23108949104	125	1778.58822430263	1334.98942349013	147.340639189219	1940.0364052517	1183.15343373828	138.58203989113	2275.05298378713	1853.72090305251	162.036073198939	2625.97011480831	1375.28369376137	137	2540.74802890409	1183.6634572513	139.455588981351	1730.61500177523	912.950914141251	126.028429474207	2256.90026893246	1302.36243912747	128	2497.33267884399	301.957166277391	126	831.118240497047	2669.31484897217	134.492959178563	4106.46205779628
359.49692704379	139.262130949032	799.44467848966	1689.50063018127	173.927626276366	2554.40816825522	1050.20712492873	138	2194.12283175188	1749.17127181737	147	2525.51869098487	1682.03612933766	127	3766.44727834669	1513.33439890253	136.023779221956	2254.45530179139	840.428802107069	125	1783.12113087347	1337.40063983175	147.416641147968	1945.85701732509	1183.93636684871	138.557358461565	2280.01201154684	1854.79286652304	162.101509926218	2630.82297130502	1376.8339332112	137	2544.82348722288	1185.14689620906	139.513856155396	1734.55451747072	913.719440838634	126.042050674087	2260.29226352955	1303.23880391927	128	2502.43247016574	302.191274837054	126	832.725854370333	2670.58144458089	134.496968012965	4106.83168916815
359.79122814708	139.264119514579	800.172975923109	1691.57431625097	173.960436904052	2557.16488196869	1051.63369387998	138	2197.47206639512	1751.1425894168	147	2529.70771975475	1684.24076975607	127	3772.55296165322	1515.11970760238	136.04072345119	2258.6279820803	841.45078187753	125	1786.71815254484	1339.60994678031	147.478327130832	1950.7085793785	1184.58264931705	138.53492361796	2283.54050539353	1855.46973459355	162.159706663389	2633.36008115033	1378.12507062232	137	2547.09945612661	1186.25054696693	139.558968000975	1736.62721893227	914.40738454695	126.061156926116	2262.30225768526	1303.92447641521	128	2505.54018696132	302.390811006018	126	833.829486052085	2672.09662752851	134.506489406152	4106.93540776459
360.052538212287	139.266687725683	800.731074526437	1693.41327906583	174.027755190483	2558.6699321374	1052.90350952109	138	2200.06629740155	1752.98373692251	147	2532.97905032045	1686.00943555194	127	3776.13334315416	1516.55270309497	136.061156926116	2261.16676466963	842.199305514821	125	1789.0441550153	1341.45798518868	147.517013106353	1954.21918406056	1185.04880358003	138.519412771115	2285.40961137708	1855.75987631574	162.204557010246	2633.44667162719	1379.09598479089	137	2547.41949440221	1186.94680101764	139.588875149891	1736.72619151533	914.973471838686	126.082403674188	2262.78828343804	1304.3175502528	127.998672777103	2506.40472071678	302.542086088979	126	834.379391678289	2673.74166173112	134.520514562384	4106.81360112541
360.261805659726	139.269749256314	801.044737428469	1694.85995214664	174.126442647784	2558.91527462543	1053.93713587165	138	2201.68034197058	1754.54329426108	147.001327222897	2535.11382333866	1687.27077191687	127	3777.03754245448	1517.60413436248	136.082403674188	2262.05334392966	842.62090301733	125	1789.94392511765	1342.85129018196	147.53000221848	1956.22094825013	1185.29575893213	138.512222178893	2285.5834093176	1855.70753438034	162.232357096474	2631.26014439922	1379.70983718922	137	2545.83874624443	1187.24631750271	139.602399687163	1734.96935576028	915.383829837928	126.101082211157	2261.80527702152	1304.34592786651	127.995349747749	2505.04313439002	302.631418497528	126	834.374991805101	2675.40465541026	134.538010635614	4106.54852520332
360.404676687109	139.272103096006	801.069905081157	1695.77772096354	174.246475194454	2558.08564654187	1054.67931193912	138	2202.23130638276	1755.69001614236	147.004650252251	2536.07343930607	1688.04574609401	127	3775.50641159299	1518.30995626644	136.101082211157	2261.50610060847	842.710314731803	125	1789.46109807578	1343.77238263348	147.518244549785	1956.76981184736	1185.29096079797	138.512261733613	2284.20794189604	1855.37749855909	162.242779676185	2627.23653136283	1379.95377952451	137	2542.5982801773	1187.18228751177	139.599061668277	1731.65966840407	915.612263207233	126.113897378801	2259.55696120868	1303.97364183626	127.988250197392	2501.69116029278	302.648014993349	126	833.849959869182	2676.98272394068	134.554667519964	4106.22236754142
360.471457842364	139.272536373288	800.796822416362	1696.07140223788	174.373618584445	2556.49142383734	1055.10780972493	138	2201.77908419644	1756.33041549762	147.011749802608	2535.96991749863	1688.43489882778	127	3772.11128000195	1518.75144994152	136.113897378801	2259.91573135778	842.506279455365	125	1787.81843004607	1344.27137387841	147.487792938734	1956.11787268248	1185.01189225414	138.517289815804	2281.56996844148	1854.8376347786	162.238758811913	2621.95455576729	1379.84084167321	137	2538.06114470005	1186.80194981575	139.578968198619	1727.21038776266	915.648451071139	126.118459717673	2256.34452902132	1303.2051431533	127.974893555147	2496.73874217569	302.587372016984	126	832.864558851034	2678.40116481079	134.566306691518	4105.90739048214
360.46120607865	139.269213343935	800.245998127711	1695.70280609226	174.491142298476	2554.48174321254	1055.23506045341	138	2200.50361498305	1756.41867345976	147.023779221956	2535.01799644382	1688.58109903689	127	3767.61722003845	1519.01208094558	136.118459717673	2257.73391481414	842.075968208438	125	1785.35936746605	1344.43300661234	147.446822085364	1954.63639422102	1184.44042211209	138.522728944836	2278.04042629969	1854.12956733058	162.224209336535	2616.01569741379	1379.39362193152	137	2532.64947038594	1186.14623903593	139.542829803978	1722.07051427971	915.493533497799	126.113897378801	2252.48200411401	1302.07631452086	127.954626296559	2490.62309243527	302.451377613446	126	831.49065731154	2679.59881099357	134.568726804301	4105.62018462117
360.380365708631	139.260353293398	799.461787849871	1694.69211530806	174.583276545717	2552.3581165564	1055.10271465452	138	2198.65100327979	1755.95328901527	147.04072345119	2533.45150857359	1688.62834756984	127	3762.85880228966	1519.13988152507	136.113897378801	2255.39306116787	841.49385478731	125	1782.49159339857	1344.34062373428	147.404626184301	1952.74593104674	1183.56600278767	138.523942408193	2274.02823065149	1853.2697318097	162.204717526421	2609.97013607221	1378.64297896053	137	2526.80555774603	1185.24963278085	139.492095457573	1716.68301990491	915.159739970895	126.101082211157	2248.24909436604	1300.64683275005	127.927093271276	2483.77456200998	302.251209356729	126	829.812327036312	2680.52731753394	134.556946002073	4105.3272527831
360.242520122189	139.245970034358	798.501228984979	1693.11501868626	174.640850622445	2550.30700736004	1054.77268201316	138	2196.47889607636	1754.96726671871	147.061156926116	2531.46260145796	1688.68695688845	127	3758.56892156913	1519.12692684307	136.101082211157	2253.21026679749	840.82543291546	125	1779.60424437447	1344.04579237095	147.367573495877	1950.81735907343	1182.3819326331	138.518506407647	2269.9336787415	1852.24306678968	162.184284051495	2604.26835418615	1377.62305357771	137	2520.95507583714	1184.13821106681	139.430213171689	1711.44688285149	914.670804119212	126.082403674188	2243.87396657959	1298.99609085973	127.893817103856	2476.60240500075	302.006039526347	126	827.929544537617	2681.1558453112	134.529473161733	4104.95068825046
360.066410704167	139.22729149739	797.424224196942	1691.09869899689	174.66048579328	2548.39151340616	1054.31768530539	138	2194.21158700745	1753.52690591872	147.082403674188	2529.17124173654	1688.80792564986	127	3755.29756871165	1518.90618585331	136.082403674188	2251.36762966424	840.112558004989	125	1777.01939544756	1343.54954616361	147.339687930007	1949.12480637763	1180.88704464525	138.506346045432	2266.11894830525	1851.01969838245	162.165584884303	2599.26413018113	1376.37071626699	137	2515.49465583386	1182.83862661755	139.360396331964	1706.71381919496	914.059907730877	126.061156926116	2239.54695546829	1297.21937835374	127.858194337653	2469.50336177917	301.741214797998	126	825.96268610547	2681.47455037669	134.486750845173	4104.40638494871
359.872506838769	139.207612840713	796.295138558121	1688.81689846136	174.646693569887	2546.59847019478	1053.81483554563	138	2192.03006561256	1751.72647489621	147.101082211157	2526.65287889638	1688.99565802135	127	3753.34810351332	1518.38769259064	136.061156926116	2249.92024644369	839.377394350401	125	1774.95381929674	1342.81873461242	147.322228072334	1947.81648459277	1179.09457377101	138.490177264672	2262.88528788944	1849.58543966456	162.149426403365	2595.23300230246	1374.93780185515	137	2510.77888282707	1181.39535357708	139.287214676209	1702.7842397589	913.368264613105	126.04072345119	2235.44168384677	1295.41973795598	127.824945695083	2462.87616392929	301.484402029922	126	824.052034816279	2681.49787609187	134.431019203925	4103.6351621282
359.680042764885	139.191477077452	795.17210521159	1686.46572449622	174.609852533154	2544.88391664419	1053.3298412341	138	2190.05342554766	1749.67164780443	147.113897378801	2523.95834993265	1689.21046384935	127	3752.78600441511	1517.48868970827	136.04072345119	2248.84238494631	838.621665483006	125	1773.51313354754	1341.80038037062	147.314674960753	1946.928616485	1177.03236855239	138.475781449836	2260.46347187822	1847.94589083658	162.134859772532	2592.39471318815	1373.38755961249	137	2507.10571119465	1179.86886436393	139.216039613968	1699.90312292539	912.647085840344	126.023779221956	2231.73980601018	1293.70634567236	127.799136608139	2457.12820594197	301.261257524571	126	822.346904668417	2681.27720003351	134.366536189542	4102.62789313315
359.504321555097	139.182418216444	794.113176294453	1684.25373531044	174.562575605866	2543.25724597407	1052.91745649429	138	2188.37268004258	1747.48943657472	147.118459717673	2521.18953287707	1689.40356141728	127	3753.45256091108	1516.18096041285	136.023779221956	2248.06515501746	837.842128304943	125	1772.68920974314	1340.45970896504	147.31482618756	1946.4011923592	1174.75235155763	138.467872392473	2258.97613901197	1846.14298162026	162.119874853948	2590.88252094599	1371.8004208342	137	2504.66533182021	1178.33982098113	139.151556599585	1698.22308541877	911.954411428505	126.011749802608	2228.63211674316	1292.18623012697	127.785020410043	2452.64519985835	301.09339068339	126	820.987031366721	2680.90105322624	134.300203788336	4101.43904558385
359.355564094431	139.184097910354	793.174173903338	1682.38204523256	174.518327122139	2541.81520718609	1052.61842387805	138	2187.0578582024	1745.3158385766	147.115224601697	2518.51501386252	1689.53557456979	127.001327222897	3755.05289955112	1514.51008872596	136.011749802608	2247.5334724452	837.035992477679	125	1772.39372869183	1338.79732011643	147.320211226889	1946.12530104074	1172.32201548329	138.469893975519	2258.4243351283	1844.23885474641	162.102409434054	2590.70744799407	1370.26244364833	137	2503.50528929097	1176.89364139453	139.098013173577	1697.77523763923	911.346888003967	126.004650252251	2226.29046778547	1290.94556411189	127.783693187146	2449.71692997675	300.992715557071	126	820.074668623316	2680.47901529644	134.236828063216	4100.17533200143
359.238955490089	139.197973309524	792.403266902466	1681.01212462065	174.488160640423	2540.74660056141	1052.45707312417	138	2186.16686403896	1743.28229914678	147.105732463407	2516.16396969176	1689.58788405176	127.004650252251	3757.20083441613	1512.594098816	136.004650252251	2247.21304809229	836.206273199963	125	1772.47440948494	1336.85800383102	147.329151244472	1945.96345235724	1169.81993914854	138.480599646739	2258.67199355902	1842.30055378394	162.082403674188	2591.71801195331	1368.85282068265	137	2503.50594666734	1175.60618892037	139.057123506049	1698.44489251986	910.873855427408	126.001327222897	2224.82574970263	1290.03781047592	127.794486355888	2448.46223316012	300.961230114454	126	819.65045813759	2680.12457048654	134.183312162058	4098.97908693718
359.153926691038	139.224585300219	791.834530430612	1680.23880496625	174.479756584845	2540.2719886383	1052.44274500296	138	2185.73547308	1741.50142800492	147.094153476796	2514.36809473884	1689.56906916849	127.011749802608	3759.48367028185	1510.60280049735	136.001327222897	2247.09001798781	835.362906274906	125	1772.74114982285	1334.72516336661	147.338904881485	1945.77288000708	1167.32311214207	138.496852574737	2259.45332907093	1840.37822073643	162.061156926116	2593.58027639433	1367.63045793572	137	2504.37838305393	1174.52815669899	139.029756697104	1699.97068986987	910.563760164567	126	2224.22726671654	1289.46835014472	127.813195892475	2448.74980101249	300.989657688777	126	819.676063884142	2679.91957866097	134.143039143606	4097.97137707863
359.096372341442	139.263575340204	791.474776896695	1680.05879305866	174.495775868845	2540.54589574165	1052.5666336253	138	2185.74936220457	1740.04230158027	147.084936148072	2513.28100654893	1689.49347382096	127.023779221956	3761.49969658403	1508.70641903705	136	2247.14058571239	834.513430385962	125	1772.98641151313	1332.48977877626	147.34695646605	1945.41179334474	1164.89684164474	138.510973580007	2260.40222679055	1838.49551676268	162.04072345119	2595.80058231686	1366.62114758625	137	2505.70227520681	1173.67590483475	139.013077025505	1701.97352963386	910.418354763416	126	2224.34158075254	1289.18780118476	127.834415115697	2450.18869282575	301.059777951842	126	820.03725775764	2679.88903203057	134.118280432165	4097.23194862283
359.057530590886	139.313276979933	791.294169149387	1680.354721803	174.533072900537	2541.54561375981	1052.79787259669	138	2186.11258531957	1738.91292259674	147.080119679483	2512.89489873521	1689.36241056241	127.04072345119	3762.85701613091	1507.02535155114	136	2247.28237154966	833.65590084578	125	1772.98432248613	1330.22122298082	147.349856517944	1944.72532038143	1162.59424518193	138.517725396952	2261.11831398986	1836.65475095035	162.023779221956	2597.81612478048	1365.818617518	137.001327222897	2507.00648552487	1173.0313014704	139.004650252251	1704.02450697432	910.416106391496	126	2224.8778584838	1289.11225494689	127.853093652666	2452.177606749	301.1500671322	126	820.565134665545	2680.01091016623	134.107857852454	4096.78141762737
359.027019075533	139.368980750048	791.223554783483	1680.90614783355	174.583009080793	2543.0066357489	1053.08305221017	138	2186.6341130711	1738.05442600589	147.080285895822	2513.00423760311	1689.14119263442	127.062484149013	3763.19247840223	1505.59398495655	136	2247.35277137222	832.772146773794	125	1772.51056843651	1327.94258160306	147.344491275321	1943.54990643819	1160.44894430853	138.513856155396	2261.23028512914	1834.83570005955	162.011749802608	2599.08785000289	1365.17725589697	137.004650252251	2507.84341454234	1172.53948271204	139.001327222897	1705.70740337308	910.51601129554	126	2225.44749673576	1289.13590280166	127.865936345159	2454.00435329127	301.240185289044	126	821.067984534303	2680.21823118391	134.108837341938	4096.5650566991
358.99228361746	139.423828611704	791.165181364337	1681.43205284046	174.631970509165	2544.44224298524	1053.35175498339	138	2187.04967767407	1737.35737403149	147.082403674188	2513.23760323471	1688.76250845755	127.087053926439	3762.16106156285	1504.35474968047	135.998672777103	2247.08844587388	831.829974070332	125	1771.343997898	1325.62893305563	147.327837796167	1941.70109517658	1158.48409792625	138.498158808271	2260.44967927186	1833.02033290768	162.003323029354	2599.1944787987	1364.62903474924	137.011749802608	2507.85429737276	1172.12392987958	139	1706.67590980826	910.669345108669	126	2225.64046394477	1289.1584193308	127.872222622371	2454.9892075425	301.314310337925	126	821.372170197505	2680.42849523579	134.117482266015	4096.48397217896
358.939908704958	139.470162215439	791.009632147554	1681.64765020921	174.666463268428	2545.23014786655	1053.52591577462	138	2187.05843969907	1736.68614513079	147.081953241451	2513.12875561379	1688.13589930711	127.112832013765	3759.46663640169	1503.18227740573	135.995349747749	2246.16461123578	830.791733375525	125	1769.2919417969	1323.22330906263	147.298164274841	1938.99843878309	1156.71590212088	138.472175932398	2258.61181687454	1831.19892941668	161.996676970646	2597.90042435417	1364.09127495529	137.023779221956	2506.81333073641	1171.69584709316	139	1706.69022374336	910.831482401004	126	2225.11098767007	1289.10581388466	127.87381134399	2454.61844743654	301.36538344498	126	821.356361902809	2680.57997291383	134.130297433659	4096.43479958088
358.86064654305	139.499661792282	790.660980653115	1681.34096145829	174.674628183821	2544.77607523867	1053.54238190215	137.998672777103	2186.39916540877	1735.92997553545	147.073173927611	2512.24739155661	1687.17545341774	127.137676600757	3754.9121168063	1501.92919081443	135.988250197392	2244.2589743102	829.62663204071	125	1766.22022381555	1320.66835864078	147.257030264044	1935.29853793505	1155.15923017513	138.439095184854	2255.69264238389	1829.38340069882	161.988250197392	2595.18202324098	1363.4858266702	137.04072345119	2504.64772794237	1171.17183554858	139	1705.63282862972	910.967602819262	126	2223.64134754959	1288.93625680419	127.873025595694	2452.62797840363	301.390637282732	126	820.96852247414	2680.64097220367	134.143566162526	4096.33915495652
358.748755270528	139.507428247511	790.057511214131	1680.41523452924	174.650299274894	2542.65979930429	1053.36339515791	137.995349747749	2184.90271458593	1735.02508557654	147.052652539306	2510.29776517511	1685.84518297865	127.159183168863	3748.45904853922	1500.49175943118	135.976220778044	2241.13683416382	828.330485316736	125	1762.08772938665	1317.95209733729	147.207265107301	1930.5404446483	1153.8366996189	138.402848528667	2251.79100852118	1827.61254257832	161.976220778044	2591.19686938104	1362.75890096656	137.061156926116	2501.41757563816	1170.49180721224	139	1703.4990595494	911.056270707008	126	2221.17165403968	1288.64060352576	127.870912554929	2449.02287554599	301.393286166304	126	820.225644728901	2680.61829176552	134.15462082999	4096.16455099207
358.604215180739	139.494488045505	789.186544328753	1678.91848789578	174.595570256662	2538.76500096196	1052.9925298531	137.988250197392	2182.54773632283	1733.98351601244	147.019743902004	2507.20641351853	1684.17113580836	127.175054304917	3740.27313133865	1498.84134595263	135.957949325913	2236.72322749787	826.933678961032	125	1756.97099559231	1315.12705589344	147.155310402913	1924.78297952674	1152.77671925989	138.365315831559	2247.09374713364	1825.94596012459	161.95927654881	2586.21708494921	1361.89027840224	137.082403674188	2497.27943846334	1169.62893981992	139	1700.37042547382	911.08999001663	126	2217.79928289457	1288.23454942475	127.868375343444	2444.03987603969	301.376453609158	126	819.198923922367	2680.54843991281	134.162239137273	4095.93438267505
358.432517846243	139.463749159143	788.08364351456	1677.0115720419	174.518506407647	2533.30171186506	1052.46766965855	137.976220778044	2179.46086785565	1732.87492130633	146.976220778044	2503.12544336561	1682.25225926046	127.183485885345	3730.75322233947	1497.03888192955	135.934192821633	2231.14893825268	825.501432345272	125	1751.07863264388	1312.31311506608	147.106530629557	1918.2246511931	1152.01686061129	138.327850214021	2241.84724818326	1824.45877073064	161.938843073884	2580.57351107796	1360.90284593973	137.101082211157	2492.462879774	1168.60033590723	139	1696.40536644548	911.073268897017	126	2213.73603367365	1287.75167992362	127.863388764279	2438.05999438146	301.343990714883	126	817.988107093441	2680.49032678679	134.164807348377	4095.7014833628
358.241586843051	139.422763246668	786.823991554356	1674.92897771601	174.433390974066	2526.74921302762	1051.8535640102	137.95927654881	2175.88863350693	1731.80645328682	146.927782844198	2498.38626078487	1680.23620597115	127.183485885345	3720.46727447267	1495.21024881952	135.905846523204	2224.71872839278	824.12191354936	125	1744.72299944367	1309.67258213827	147.065829896043	1911.17216224365	1151.58831021973	138.291232065711	2236.31073761406	1823.21207068847	161.916269102915	2574.57202563417	1359.84823733447	137.1138973788	2487.22111674372	1167.45130457782	139	1691.8047875547	911.016977029075	126	2209.26981108246	1287.2277953988	127.853093652666	2431.53711987161	301.29991573803	126	816.706749128682	2680.49829847405	134.162239137273	4095.54755671756
358.045106642497	139.380582404709	785.504792282405	1672.93330602526	174.356629459467	2519.74801506172	1051.23195291275	137.938843073884	2172.14502522569	1730.89783463264	146.881540282327	2493.41636990227	1678.28723076215	127.175054304917	3710.05136133015	1493.50727375203	135.875138566887	2217.84008501918	822.889345562	125	1738.26697105345	1307.37130739603	147.034201801667	1903.97898787706	1151.50421937614	138.255158866772	2230.71834021679	1822.23493407353	161.892940313696	2568.43779472258	1358.79396537835	137.118459717673	2481.79240761015	1166.24468714534	139	1686.78124773878	910.932008128981	126	2204.70314772436	1286.69203679006	127.836962696578	2424.90023552449	301.247452646112	126	815.462074621788	2680.60823532742	134.155948052887	4095.54669213933
357.854696829965	139.345144214494	784.231438983804	1671.25973306937	174.303370249857	2512.99987374105	1050.6818121803	137.917596325812	2168.56000094927	1730.24805096929	146.844422398201	2488.65720967481	1676.55237192151	127.159183168863	3700.1328836613	1492.06752282191	135.84537917001	2210.96099688934	821.883501880311	125	1732.08069547224	1305.54019614803	147.011749802608	1897.00078636972	1151.74987989816	138.218590669617	2225.27441583411	1821.51717673762	161.868375343444	2562.31713045572	1357.80592228139	137.113897378801	2476.39987264983	1165.04517668783	139	1681.55825698536	910.823564509606	126	2200.31094036052	1286.15443763589	127.815715948506	2418.49904400321	301.1901326991	126	814.346247921455	2680.81495743439	134.148216414777	4095.75981330308
357.684200056747	139.321764211288	783.097345192979	1670.08735201788	174.285446531139	2507.12618915024	1050.27006660409	137.898917788843	2165.41384065836	1729.92009647594	146.820287576746	2484.47412445619	1675.13833581908	127.137676600757	3691.22570665787	1490.98963515064	135.820383356211	2204.48344611654	821.15762803978	125	1726.47863071725	1304.25337919715	146.994227672539	1890.53124139587	1152.28417601888	138.182359002961	2220.1474941169	1821.02032956655	161.841361005512	2556.29802952682	1356.94553675122	137.101082211157	2471.2446002567	1163.91412312273	139	1676.35700607937	910.693677171877	126	2196.31057842325	1285.61260072059	127.792734892699	2412.57998513492	301.131624656556	126	813.431767278982	2681.08750623995	134.143374459164	4096.20704278888
357.544325208741	139.313972115077	782.172549977839	1669.51382955558	174.308020502108	2502.60068950747	1050.04021727567	137.8861026212	2162.90560308066	1729.93480533424	146.810798497369	2481.11449636361	1674.09534559188	127.112832013765	3683.70181843483	1490.31646706208	135.803698947011	2198.73159558491	820.729197729446	125	1721.69356595459	1303.51770259479	146.977548000941	1884.78801843785	1153.04760299564	138.149110360391	2215.4772355592	1820.6978172601	161.809850145445	2550.45744628281	1356.26362838141	137.082403674188	2466.51350930714	1162.90746217651	139	1671.39599780662	910.539543360553	126	2192.85717826567	1285.05240857215	127.773270607435	2407.2866241888	301.075565981692	126	812.767162877411	2681.36588154834	134.145911740222	4096.87335047963
357.442452559579	139.320988762815	781.500452434052	1669.55526267868	174.368379262075	2499.70107495353	1050.00896071241	137.881540282327	2161.14482567454	1730.27460388585	146.813283805853	2478.70221911504	1673.42949170067	127.087053926439	3677.79408056298	1490.05121975932	135.797835577687	2193.94490486752	820.586537308771	125	1717.86483685609	1303.29241747685	146.95927654881	1879.91698891348	1153.98456624307	138.1239101739	2211.40039527767	1820.53569492657	161.773258189581	2544.92529150047	1355.8121495353	137.061156926116	2462.4008531624	1162.08461249573	139	1666.90036460892	910.364637153958	126	2190.04449760315	1284.46506049485	127.762992651276	2402.68277002515	301.026428105528	126	812.376230776184	2681.59378535014	134.161310595736	4097.71178024843
357.380650255344	139.33923749727	781.091742134504	1670.14516367194	174.458497418919	2498.48183994967	1050.16210900927	137.8861026212	2160.13824928273	1730.88623511149	146.82292717095	2477.23365313765	1673.10423243302	127.062484149013	3673.6173869821	1490.16243836593	135.803698947011	2190.28458253188	820.690779929637	125	1715.04521439763	1303.50257532141	146.938843073884	1876.01060515055	1155.05371462402	138.113086005539	2208.05812735159	1820.55999150222	161.733312274317	2539.91350245699	1355.63727684788	137.04072345119	2459.10981734526	1161.50298532768	139	1663.09311743725	910.185275306616	126	2187.92070077609	1283.86044232379	127.764988457733	2398.78034626225	300.989310221402	126	812.257156171054	2681.74478635803	134.191466777629	4098.6581253953
357.356349842727	139.362151269922	780.930822626346	1671.15287544649	174.565207333984	2498.80152669804	1050.46238871167	137.898917788843	2159.82067212285	1731.69932880611	146.8330878928	2476.62172512371	1673.06624220432	127.04072345119	3671.17156701642	1490.61035327925	135.820383356211	2187.83426941589	820.989435915464	125	1713.2033216402	1304.07166727402	146.917596325812	1873.1170764292	1156.2391383571	138.121626179195	2205.58226056529	1820.84001820307	161.692873039526	2535.69731431797	1355.77838858022	137.023779221956	2456.82197795255	1161.21437964159	139	1660.16523983105	910.027512122756	126	2186.50298129554	1283.26557905788	127.780370157792	2395.56760571401	300.969397937137	126	812.38704786233	2681.81745869295	134.238084528189	4099.65662874212
357.361823886092	139.383646635115	780.98271769247	1672.40772642696	174.674454460534	2500.35886347633	1050.85838308591	137.917596325812	2160.07291230554	1732.63471928319	146.840039344837	2476.72259652665	1673.25618916985	127.023779221956	3670.37556975983	1491.356452049	135.84537917001	2186.62144621532	821.426056713784	125	1712.24881007347	1304.93643256786	146.898917788843	1871.26449727759	1157.55009232812	138.150766044115	2204.08242087617	1821.47252965662	161.657243032414	2532.57263327704	1356.25885252842	137.011749802608	2455.6713546281	1161.25323558982	139	1658.2495823989	909.924051253421	126	2185.782994227	1282.72238345688	127.804764312047	2393.02090589685	300.970852628132	126	812.724400475401	2681.83896347889	134.298178730521	4100.66897017674
357.385772024161	139.398835926391	781.195943213931	1673.71873807464	174.775536671691	2502.74250228193	1051.2905505274	137.938843073884	2160.74089179432	1733.61269007988	146.840039344837	2477.362685978	1673.60898749361	127.011749802608	3671.05488904817	1492.35955563382	135.875138566887	2186.60658593352	821.942522796142	125	1712.04091191148	1306.04804023016	146.8861026212	1870.45430623937	1159.01235144447	138.196033854103	2203.63622758948	1822.55055439271	161.629704444909	2530.81387576668	1357.07461990171	137.004650252251	2455.72686168551	1161.62568003798	139	1657.40734625629	909.910407963789	126	2185.74077934819	1282.2812228983	127.832660177739	2391.12735463642	300.996749628454	126	813.222114014542	2681.85660867046	134.367583795699	4101.69024938297
357.414248560036	139.405674393882	781.515152681921	1674.90251607298	174.86259059813	2505.49618127705	1051.70161032236	137.95927654881	2161.66593837024	1734.56135848246	146.8330878928	2478.36811462511	1674.07033645102	127.004650252251	3672.94783905738	1493.58193762234	135.905846523203	2187.68079753133	822.491693687621	125	1712.40336420368	1307.37980558526	146.881540282327	1870.65410169394	1160.65091026019	138.250620286609	2204.25385663818	1824.12459223412	161.613566247911	2530.59768083384	1358.18331899906	137.001327222897	2456.94830790096	1162.29680103103	139	1657.60166734265	910.012196974701	126	2186.33417037178	1281.98906631884	127.857396171504	2389.87813788512	301.047483974859	126	813.831686719077	2681.91753968926	134.440752985709	4102.71053452427
357.435059864902	139.405394777142	781.888061413434	1675.808680731	174.935497326854	2508.18733146669	1052.04188522613	137.976220778044	2162.70637933131	1735.42075758863	146.821599948054	2479.59150285937	1674.5836769164	127.001327222897	3675.73922488995	1494.97155724374	135.934192821633	2189.67192743979	823.035293763129	125	1713.15699840271	1308.90638833165	146.8861026212	1871.79586237483	1162.47927887822	138.30468796219	2205.87379273325	1826.18394569791	161.608109963424	2531.96425461218	1359.50409764787	137	2459.18296364384	1163.19190265458	139	1658.69988483885	910.24334049925	126	2187.50968140917	1281.88134965284	127.874340400738	2389.28608639217	301.120934877959	126	814.516762118872	2682.0668820892	134.512215323261	4103.71734612165
357.435848741684	139.401614781369	782.274943416001	1676.33756618026	175	2510.4640325491	1052.27129103685	137.988250197392	2163.75424139433	1736.14371465105	146.808633553603	2480.9274458708	1675.10435818187	127	3679.07942428071	1496.46553369424	135.957949325913	2192.34357110334	823.55198113316	125	1714.13347346685	1310.6047774349	146.898917788843	1873.76281635965	1164.48470759299	138.349839362489	2208.36923653602	1828.6390928706	161.611703112635	2534.803234166	1360.9230331807	137	2462.18053223661	1164.19811362111	139	1660.48754580822	910.603228660025	126	2189.1965604199	1281.97866712848	127.882067301247	2389.36748457151	301.212713525701	126	815.254627817479	2682.34526732319	134.577908395805	4104.67466494778
357.410856402654	139.40006940765	782.651607669034	1676.46627574315	175.064502673146	2512.10213200551	1052.36579796717	137.995349747749	2164.74084630495	1736.70751571337	146.79904869476	2482.31855128268	1675.59799503479	127	3682.62382348861	1497.9940083047	135.976220778044	2195.41045655417	824.03606277012	125	1715.19902096882	1312.44642580845	146.917596325812	1876.39110996565	1166.62648411754	138.381783499838	2211.54743999514	1831.3278125743	161.620480260552	2538.83780621949	1362.30622339307	137	2465.60012052809	1165.17852034656	139	1662.67418216368	911.075574313281	126	2191.29488339042	1282.27590147708	127.881190511088	2390.11292433638	301.317572257862	126	816.032019442626	2682.77764662772	134.635743971255	4105.51012898673
357.361177480601	139.404079972099	783.015750053064	1676.26632888688	175.13740940187	2513.05584895944	1052.32670898247	138	2165.65085221888	1737.12685542749	146.79650835479	2483.76620959147	1676.06118022052	127	3686.0828765934	1499.50448670369	135.988250197392	2198.56786785138	824.504752131705	125	1716.26895863155	1314.41593047559	146.938843073884	1879.48357373915	1168.83914717365	138.399269203673	2215.16642043872	1834.04460581949	161.629697589277	2543.64804271263	1363.52501325126	137	2469.05054053963	1165.99296837478	139.001327222897	1664.91899389649	911.627801831605	126	2193.67157365952	1282.73597870391	127.875474893801	2391.45573649917	301.426365892762	126	816.835784085932	2683.36315032465	134.685325039247	4106.1316252095
357.294677066975	139.41646186246	783.380139582652	1675.88886079813	175.224463328309	2513.45493728289	1052.17837568979	138.004650252251	2166.50403565696	1737.44854737515	146.803698947011	2485.30557936314	1676.51612207013	127	3689.25777537239	1500.97078244035	135.995349747749	2201.53741189168	824.992489608834	125	1717.31596422272	1316.51075011642	146.95927654881	1882.83736840851	1171.04744080116	138.403913893702	2218.95974828333	1836.58034347632	161.637315896559	2548.72048393404	1364.48186416049	137	2472.14134529199	1166.52623265021	139.004650252251	1666.86901433599	912.21286783756	126	2196.15775252012	1283.28805494828	127.868463256822	2393.24325950902	301.529473161733	126	817.643238332757	2684.06088302978	134.72720176885	4106.45245321636
357.227524858941	139.436661363514	783.768828676219	1675.54406327636	175.326872762363	2513.59507687744	1051.96980772175	138.011749802608	2167.35278324829	1737.7538601907	146.820383356211	2486.99471218163	1677.01346292454	127	3692.0776965063	1502.40764622522	135.998672777103	2204.11741834753	825.545937244388	125	1718.36944517474	1318.75531783636	146.976220778044	1886.28285052125	1173.17872180479	138.401280437271	2222.66516491291	1838.76715988651	161.6430486693	2553.52227775045	1365.13132543651	137	2474.54588411024	1166.71568072594	139.011749802608	1668.21151485471	912.775844245134	126	2198.55219747415	1283.83604040147	127.860996176346	2395.22536117441	301.614676508691	126	818.409885128225	2684.78856589109	134.760865224402	4106.40140458389
357.177181593848	139.460689666339	784.206854533431	1675.44395495948	175.440770141164	2513.86839068794	1051.7615847217	138.023779221956	2168.26033492524	1738.12919499758	146.84537917001	2488.8834947533	1677.62231596628	127	3694.63905571852	1503.86915053164	136	2206.24380505311	826.216462568359	125	1719.51868366742	1321.19693721353	146.988250197392	1889.7300383933	1175.19240164631	138.397526633943	2226.0656920557	1840.54120767484	161.649622291396	2557.600619087	1365.50851276152	137	2476.07132896531	1166.58444329645	139.023779221956	1668.74327595924	913.266709736713	126	2200.65762740325	1284.28445966255	127.853544085403	2397.10113439224	301.671546022966	126	819.074772972121	2685.44646048757	134.786409684139	4105.96072843988
357.15979934973	139.485230240227	784.715363420615	1675.75518719581	175.560557081734	2514.6915550335	1051.61708968737	138.04072345119	2169.2990305085	1738.65300552922	146.875138566887	2491.00833830351	1678.40699376629	127	3697.15910298903	1505.42790944643	136	2207.99518806905	827.046586492413	125	1720.88437968043	1323.892615098	146.995349747749	1893.17866356757	1177.07879834346	138.397762695268	2229.02107697103	1841.944501465	161.661648582258	2560.6703026217	1365.7114963016	137	2476.70342568218	1166.23406570172	139.04072345119	1668.41890485093	913.650535588967	126	2202.32748322091	1284.56239253522	127.84336237419	2398.59226910382	301.693306720789	126	819.575499530778	2685.9379662811	134.801311700104	4105.18763255269
357.184910532184	139.505115772904	785.304664731464	1676.54436789596	175.677777489888	2516.39943912457	1051.58240837318	138.061156926116	2170.52962496532	1739.3646095076	146.905846523204	2493.37341735843	1679.40719294503	127	3699.93762168968	1507.14846423201	136	2209.57913809091	828.058552767156	125	1722.5949272354	1326.88140765668	146.998672777103	1896.71499005327	1178.86332828499	138.406622745805	2231.49173423443	1843.12770777661	161.68515131596	2562.67384300295	1365.89011572675	137.001327222897	2476.61898719928	1165.83679025156	139.061156926116	1667.3767952998	913.917038208807	126	2203.49608473443	1284.6468609018	127.826682702592	2399.50974550415	301.679278436071	126	819.864571390324	2686.2041272215	134.802903480636	4104.20119323359
357.25182743748	139.518078692586	785.972389332336	1677.76878763206	175.785959251402	2519.16697806646	1051.67999411234	138.082403674188	2171.99343986903	1740.25885561761	146.934192821633	2495.95331869507	1680.62280123834	127	3703.28304142444	1509.06216309886	136	2211.28290358745	829.246094816383	125	1724.76168089966	1330.16504592054	147.001327222897	1900.48686265859	1180.59022441381	138.42542019577	2233.54860388694	1844.3018773585	161.722624174408	2563.7991603927	1366.20110002284	137.004650252251	2476.16431219191	1165.5878241499	139.083730897085	1665.92626020764	914.08232000843	126	2204.21222243823	1284.57231561718	127.801070831605	2399.8247040773	301.636532848037	126	819.930323996496	2686.24127718914	134.7879938061	4103.18453927552
357.351437732615	139.525693871382	786.705658203742	1679.28340344841	175.880392344938	2522.96976901404	1051.90339556638	138.101082211157	2173.70790754608	1741.28622957966	146.957949325913	2498.70077212946	1682.00948646998	127	3707.40953981517	1511.15254758684	136	2213.38756909394	830.573332804979	125	1727.43811801887	1333.69370023799	147.004650252251	1904.64471936042	1182.30316267553	138.453396733931	2235.34169927695	1845.68383181179	161.774725298429	2564.42588140167	1366.77139248128	137.011749802608	2475.76925654174	1165.66012318906	139.105732463407	1664.47842409786	914.184560578743	126	2204.62408954408	1284.42318260437	127.765637448563	2399.67287400269	301.579773964817	126	819.803886252517	2686.10472071907	134.755009721165	4102.32322722806
357.466403604937	139.531059183578	787.484503012469	1680.87788585201	175.957166277391	2527.59995033009	1052.22197467673	138.113897378801	2175.66734551178	1742.37021066073	146.976220778044	2501.5648286497	1683.47960429077	127	3712.40802758401	1513.34760761887	136	2216.11391811007	831.976464080278	125	1730.61960578657	1337.35842622501	147.011749802608	1909.30976196379	1184.02559943763	138.48842783931	2237.07634123541	1847.42919270542	161.837760862727	2565.05465851281	1367.66019318887	137.023779221956	2475.87232494944	1166.15655331754	139.125647181409	1663.47328544142	914.271828390172	126	2204.95072970799	1284.31358036911	127.722884132384	2399.33202532777	301.527562430938	126	819.556997434206	2685.89154246458	134.705156854629	4101.76046068981
357.576441286957	139.538000266219	788.282561990222	1682.31997407879	176.015000174154	2532.68016759178	1052.58538451327	138.118459717673	2177.82458331579	1743.41960170222	146.988250197392	2504.483845592	1684.92837016604	127	3718.22205006524	1515.53896208947	136	2219.57005605605	833.379425977842	125	1734.23804367245	1341.01093578147	147.025106444853	1914.53442919605	1185.75391916218	138.529063377121	2238.9643858136	1849.60442454541	161.9071737461	2566.20039200546	1368.85363099889	137.04072345119	2476.82850724274	1167.09095398224	139.142238939629	1663.28949751518	914.393304196025	126.001327222897	2205.43387997147	1284.36344733394	127.678489780486	2399.16393958242	301.499474861884	126	819.288073236642	2685.72454792772	134.642960755922	4101.5528590185
357.664333072207	139.550029685567	789.071944107855	1683.4102509403	176.052926593825	2537.74798792681	1052.94020855331	138.113897378801	2180.10407090621	1744.36118510198	146.995349747749	2507.40188024094	1686.24370136891	127	3724.66036639551	1517.59075560697	136	2223.72452801126	834.699699300772	125	1738.17427224593	1344.47513722021	147.046700926337	1920.27812709977	1187.44991249095	138.572817000185	2241.17236212962	1852.15657016533	161.976220778044	2568.27096853035	1370.25896834673	137.061156926116	2478.82769881441	1168.37809677347	139.15462082999	1664.15709006855	914.588942908764	126.004650252251	2206.29751987689	1284.67404534938	127.640132586841	2399.5417058074	301.511766139093	126	819.104258395561	2685.72796772929	134.574302690798	4101.6647191733
357.717876498215	139.567132382517	789.82401215754	1684.01608609382	176.071325514053	2542.32285578682	1053.23900164865	138.101082211157	2182.40339039708	1745.14613926696	146.998672777103	2510.26312825736	1687.34134913219	127	3731.44364598711	1519.3735656343	136	2228.41116042817	835.868988703126	125	1742.27640222261	1347.58260480759	147.077556980975	1926.40447620385	1189.05389059423	138.619082279732	2243.79892100329	1854.93564624559	162.041680222999	2571.49702918526	1371.73698481297	137.082403674188	2481.87385927289	1169.85951522333	139.16356636017	1666.12380594879	914.880957248002	126.011749802608	2207.70796196716	1285.30307254261	127.615650722794	2400.77882201361	301.573736338355	126	819.101987730766	2685.99787720838	134.509120093237	4101.98533509365
357.732702949082	139.585523574602	790.509718481549	1684.09453559705	176.071846704714	2545.96950958255	1053.4493950141	138.082403674188	2184.59750799674	1745.75966818098	147	2512.99812963769	1688.16617640559	127	3738.24587385584	1520.775197118	136	2233.34742247263	836.836265496197	125	1746.37716283865	1350.18625526543	147.117932698753	1932.68600277294	1190.49128665468	138.664085532084	2246.84644750756	1857.71460556999	162.101082211157	2575.86700034365	1373.12239912785	137.101082211157	2485.778315254	1171.33105930868	139.169457600627	1669.03306063961	915.272625397293	126.023779221956	2209.7410660432	1286.25642518986	127.609966105126	2403.05493548319	301.685493221113	126	819.346658957341	2686.58958479872	134.454655702213	4102.36297118759
357.711906633747	139.600482366774	791.099530188881	1683.69498161148	176.057302791557	2548.36183452494	1053.55937378223	138.061156926116	2186.55474890091	1746.2167581527	147	2515.51784133126	1688.69700289789	127	3744.70876170076	1521.7146737041	136	2238.15828591171	837.57150078122	125	1750.29573820434	1352.18022480844	147.1669121072	1938.81636584308	1191.68500454653	138.704877237889	2250.21150237362	1860.23242265312	162.153293607093	2581.12181053689	1374.25697955555	137.1138973788	2490.18776351288	1172.58233500553	139.173988939881	1672.54788358015	915.745075062259	126.04072345119	2212.38149629337	1287.4799179105	127.62583724118	2406.39071697128	301.837493663841	126	819.864856438339	2687.49153866378	134.418572133879	4102.65933355402
357.664629706459	139.60619798406	791.573399193872	1682.95244913309	176.031493704612	2549.34078996232	1053.58055187585	138.04072345119	2188.16551620939	1746.55826583241	147	2517.72494153112	1688.94434866542	127	3750.49934204469	1522.1540103951	136	2242.44196420811	838.068703127196	125	1753.86233332327	1353.51382903604	147.220428008357	1944.45908638608	1192.56437139915	138.735616193824	2253.69772298761	1862.2361296964	162.198745613495	2586.79627818868	1375.01208606712	137.118459717673	2494.65222197262	1173.43136529469	139.178400051947	1676.21413133954	916.259119546101	126.061156926116	2215.51885999233	1288.86671945932	127.661460007382	2410.63468508216	302.012029419348	126	820.63913597294	2688.62134170918	134.405756966235	4102.77638904958
357.603009278436	139.599127619027	791.91915271992	1682.05971176393	176	2548.93216585103	1053.54213983515	138.023779221956	2189.35299974142	1746.83644028712	147.001327222897	2519.51607933445	1688.93834275919	127	3755.33845219714	1522.09778965444	136	2245.83021734721	838.339704116269	125	1756.93164690496	1354.19108281418	147.273770120586	1949.29206955371	1193.07657212359	138.750880659575	2257.06120794993	1863.5255017825	162.237024504179	2592.32750540217	1375.3092154047	137.113897378801	2498.72048575663	1173.75815595388	139.182962390819	1679.55643033562	916.767179815722	126.082403674188	2218.98210036245	1290.28183249279	127.712113681318	2415.50467180791	302.18655011575	126	821.615659385649	2689.84747491004	134.418599658729	4102.68512324897
357.539573870211	139.579149384012	792.142413718212	1681.23642972812	175.968506295388	2547.36030651643	1053.48517190554	138.011749802608	2190.10562411951	1747.10574775799	147.004650252251	2520.82067052796	1688.72882837991	127	3759.03182674566	1521.60154488982	136	2248.04957135744	838.417733061589	125	1759.39839859232	1354.27879548228	147.322489708999	1953.05924449795	1193.18797097311	138.746985225574	2260.0437486134	1863.97539927019	162.26797160068	2597.15023996808	1375.12390198123	137.101082211157	2502.0104154349	1173.5178276278	139.186804107525	1682.16282686202	917.216343821711	126.101082211157	2222.5649412553	1291.58181121093	127.771140411214	2420.63462711619	302.338263283168	126	822.712308063701	2691.00001104262	134.456379640552	4102.41229414636
357.486838979748	139.550558742314	792.266730721543	1680.69829477311	175.94402443134	2545.01824063342	1053.457777655	138.004650252251	2190.47977136911	1747.42232512215	147.011749802608	2521.62303945644	1688.38213422886	127	3761.50210013562	1520.77055506071	136	2248.9729235234	838.352291346689	125	1761.21944595938	1353.89965395446	147.362762727451	1955.61940377044	1192.89665871824	138.722020411394	2262.43443757041	1863.55991148527	162.290454529785	2600.82235421909	1374.48820241046	137.082403674188	2504.28678228375	1172.74598720592	139.188136137596	1683.76734338623	917.560856042919	126.115224601697	2226.06964237378	1292.64142453373	127.831332954842	2425.65056471316	302.447510409717	126	823.836505132001	2691.91044623371	134.515271153729	4102.03930885147
357.453411585521	139.517544073617	792.332932968559	1680.61478241304	175.932803547537	2542.4187145128	1053.50180151987	138.001327222897	2190.60330929792	1747.82831975883	147.023779221956	2521.98830259965	1687.98056320447	127.001327222897	3762.81099286709	1519.75449837755	136	2248.64884517296	838.208316237853	125	1762.42501820114	1353.22320829852	147.393644974534	1956.97809567167	1192.22575014878	138.676095292669	2264.11432598744	1862.33976787769	162.304478076902	2603.09863674686	1373.47495346882	137.061156926116	2505.49198021686	1171.53942471757	139.184813108242	1684.28582497443	917.764270930375	126.123109969924	2229.33033485339	1293.36809596759	127.886369820086	2430.21752444266	302.500934922728	126	824.896654486424	2692.42989035131	134.58898655594	4101.66814924364
357.445158756749	139.487810869184	792.392528935119	1681.0869305231	175.940424288555	2540.12766976577	1053.64619636627	138	2190.65558520932	1748.35283605385	147.04072345119	2522.06540533917	1687.61179064283	127.004650252251	3763.1255677244	1518.73070619677	136	2247.27662499753	838.056420459976	125	1763.10899507994	1352.44585002916	147.416096973593	1957.27934461823	1191.22795038509	138.611964749299	2265.06044816588	1860.44753340777	162.309241659981	2603.94107980109	1372.18467942261	137.04072345119	2505.71882096848	1170.03197026247	139.175054304917	1683.79841065216	917.80644114083	126.125647181409	2232.2272041423	1293.71316962987	127.930847074603	2434.08174746517	302.494285805108	126	825.813529952856	2692.45688412951	134.668826756626	4101.39074489738
357.463598103907	139.465876586016	792.500996063183	1682.12512747997	175.970852628132	2538.69877137203	1053.90091193658	138.001327222897	2190.84680000898	1749.00110949149	147.062484149013	2522.0764041251	1687.3674122684	127.011749802608	3762.73081602635	1517.88678201483	136	2245.18882945854	837.967973956243	125	1763.42872820425	1351.77551056471	147.433037728058	1956.79868487818	1189.97846322502	138.534664888585	2265.34085248293	1858.06020967477	162.304478076902	2603.49775218008	1370.72707174507	137.023779221956	2505.16995074082	1168.36590187515	139.159183168863	1682.50776300597	917.682173822225	126.124861433113	2234.6973914777	1293.67298033833	127.963143752539	2437.09831328194	302.429515933076	126	826.53080971526	2691.94877169526	134.747365996432	4101.2685461219
357.506839177392	139.455415258064	792.707121198453	1683.65007750292	176.024396054139	2538.59364560756	1054.2522102568	138.004650252251	2191.37544444463	1749.75352265782	147.087053926439	2522.27533247844	1687.3217409739	127.023779221956	3761.97620971552	1517.38654792566	136	2242.789525743	838.001558473927	125	1763.57601280258	1351.39512743283	147.448149308261	1955.89055610307	1188.57196475799	138.448935056557	2265.08837162341	1855.3751232866	162.290454529785	2602.04298287083	1369.21011623127	137.011749802608	2504.09556174749	1166.6700069422	139.137676600757	1680.67713264052	917.404420795449	126.123127125378	2236.72989751031	1293.28616920461	127.983599945141	2439.23906202415	302.31703369055	126	827.021093089797	2690.93022222127	134.818015060839	4101.32246884993
357.569874741689	139.457603473305	793.04627443102	1685.50629669458	176.099340396474	2540.12654628395	1054.66519453993	138.011749802608	2192.39826629584	1750.56599552679	147.112832013765	2522.9055627616	1687.53005733957	127.04072345119	3761.23930654664	1517.35041195463	136	2240.49136227868	838.196984202571	125	1763.75192782856	1351.44618602924	147.462704424331	1954.93324280211	1187.10857884978	138.361601582951	2264.45296629312	1852.5818137851	162.26797160068	2599.89464928406	1367.72645341596	137.004650252251	2502.72367974972	1165.0467472152	139.112832013765	1678.56096185497	916.999386726422	126.122313852232	2238.35603901817	1292.62485624511	127.994022524852	2440.58393617592	302.17040885984	126	827.285056036544	2689.48545269551	134.8760898261	4101.52363100004
357.645493229806	139.469897450288	793.536656619846	1687.49187525434	176.188934303745	2543.42599000482	1055.09057149687	138.023779221956	2194.00904480553	1751.37611148281	147.137676600757	2524.15964983022	1688.01794042184	127.061156926116	3760.89498216549	1517.83492865964	136	2238.66453754271	838.570890062327	125	1764.14263354582	1352.00640553945	147.476820622427	1954.27732486157	1185.69813166552	138.278531003891	2263.5785279363	1849.87155319676	162.238351727076	2597.35993329302	1366.36595067395	137.001327222897	2501.22672358379	1163.57899681544	139.087053926439	1676.36671459625	916.512516514646	126.123127125378	2239.64699808856	1291.79337775202	127.998672777103	2441.30863918162	302.007099550358	126	827.35122185552	2687.76830550364	134.921115796128	4101.82661757212
357.725600491435	139.48974954961	794.175556279227	1689.39859075476	176.286693485548	2548.41059639949	1055.47748864682	138.04072345119	2196.21925642784	1752.11665521552	147.159183168863	2526.13360851807	1688.78502118277	127.082403674188	3761.25068137356	1518.82964944063	136	2237.58018396416	839.116933864822	125	1764.89041308888	1353.087400702	147.489401816198	1954.19026593456	1184.44499172277	138.203745636985	2262.58556417745	1847.41195956072	162.203395865745	2594.70045388688	1365.20174689213	137	2499.71225834462	1162.32699255092	139.062484149013	1674.23563198743	916.000609325235	126.124861433113	2240.68952863243	1290.91312171753	128	2441.63758255981	301.844943588862	126	827.265181072726	2685.97447262205	134.953299073663	4102.17691858052
357.801311700104	139.512751235641	794.943340829424	1691.0424031571	176.383646635115	2554.80807877008	1055.77773850775	138.061156926116	2198.96457391805	1752.72152184311	147.176381527814	2528.81468762673	1689.79676965083	127.101082211157	3762.49202560474	1520.25445329996	136	2237.37086935389	839.806249420037	125	1766.06488252341	1354.6313844517	147.49807293272	1954.81934444634	1183.43911256009	138.140854403134	2261.55994211432	1845.34641616979	162.166370632599	2592.10804395351	1364.29677885145	137	2498.22135991413	1161.33563456771	139.04072345119	1672.24065202792	915.522504359602	126.125647181409	2241.5625065576	1290.10340336135	128	2441.79202234748	301.699910538684	126	827.079054407109	2684.30860126929	134.974893555147	4102.52005356723
357.865039896237	139.534812986906	795.807866983424	1692.29871580861	176.472966487867	2562.20073468753	1055.96260115129	138.082403674188	2202.11779805	1753.14087240452	147.188136137596	2532.08217871909	1690.99571047666	127.113897378801	3764.67294115482	1521.98392620091	136	2238.04256062387	840.595031881722	125	1767.66899174332	1356.53688830934	147.502695660121	1956.20134482453	1182.7519478521	138.092240846117	2260.57031421261	1843.79037407309	162.129511685363	2589.72325568561	1363.69974179719	137	2496.76796332533	1160.6377894047	139.023779221956	1670.4125171511	915.132766197623	126.123109969924	2242.32421220582	1289.46869495445	128	2441.95191005136	301.583612843806	126	826.83850391534	2682.95421192902	134.988250197392	4102.81417382207
357.910670498741	139.554667519964	796.7304579292	1693.11350983097	176.551327335156	2570.08418223925	1056.02105928967	138.101082211157	2205.50941138205	1753.34722027449	147.19656291085	2535.72865439454	1692.30463698581	127.118459717673	3767.68853572864	1523.86785800932	136	2239.48136845317	841.431779600805	125	1769.63291576133	1358.67703592967	147.502723184971	1958.26863284206	1182.42411180065	138.058450728946	2259.67534373587	1842.81500685898	162.095480699693	2587.64803533347	1363.43745629108	137	2495.36442775722	1160.24921446755	139.011749802608	1668.76465634337	914.870794034719	126.115224601697	2243.00262823255	1289.08214350024	128	2442.22885392773	301.503256190061	126	826.578615124182	2682.04237002238	134.995349747749	4103.03249435023
357.937368724126	139.570831563123	797.671256861451	1693.51635718815	176.616620563771	2577.95114098854	1055.96999318987	138.113897378801	2208.95532788557	1753.35261530452	147.203483779124	2539.50257122826	1693.63539319673	127.113897378801	3771.31743477465	1525.7591454398	136	2241.50486124898	842.264231975925	125	1771.84195698045	1360.9261663326	147.501151618806	1960.88892416998	1182.46069710089	138.041506499712	2258.92975840344	1842.43647604602	162.065807178367	2585.95346562646	1363.51027794769	137	2494.04017536042	1160.16446709436	139.004650252251	1667.31171701488	914.750297932037	126.101082211157	2243.59924352603	1288.97060755813	128	2442.65998058185	301.458509836773	126	826.318440426887	2681.61638888435	134.998672777103	4103.15746220674
357.947526746202	139.583794829089	798.593631404665	1693.59918400037	176.672061872601	2585.34946211302	1055.84539923275	138.118459717673	2212.27758607129	1753.20294696461	147.212983645558	2543.15241855939	1694.91520202117	127.101082211157	3775.26893589795	1527.54838760757	136	2243.90752963854	843.056002303028	125	1774.16250441048	1363.18972014158	147.50192706728	1963.90791511278	1182.83539311181	138.041506499712	2258.40055663242	1842.62142301423	162.042050674087	2584.70231047479	1363.8940920331	137	2492.86392112115	1160.36002619875	139.001327222897	1666.08765901778	914.758619345689	126.082403674188	2244.10581344534	1289.11226220199	128	2443.22764891294	301.44289553021	126	826.064409197546	2681.63284847069	135	4103.19210845712
357.949265653595	139.596063388622	799.465742225078	1693.49211524138	176.722007342225	2591.93182259741	1055.69680354302	138.113897378801	2215.32333896646	1752.97639611877	147.22726300108	2546.46655840208	1696.0876126456	127.082403674188	3779.23891917283	1529.17280940296	136	2246.50052021687	843.785734359362	125	1776.46914005643	1365.41294998863	147.509405350668	1967.17946897812	1183.48860816358	138.058450728946	2258.14197925649	1843.28042845738	162.023779221956	2583.91848868301	1364.53472797855	137	2491.90691746278	1160.78464211942	139	1665.12303436835	914.862173168628	126.061156926116	2244.50567939546	1289.44660689626	128	2443.86560313561	301.445332480036	126	825.809283885663	2681.98435190831	135	4103.14620067335
357.951798127479	139.608472803833	800.259054042368	1693.32491751703	176.771422193877	2597.46805864453	1055.57248413558	138.101082211157	2217.97264779867	1752.76321974899	147.247708941751	2549.29510668579	1697.12465168443	127.061156926116	3782.96105857394	1530.61834841942	136	2249.13548508842	844.452396723293	125	1778.66217668433	1367.58403239044	147.525706289236	1970.59055275762	1184.33974536821	138.09091362322	2258.18135385554	1844.28521901516	162.011749802608	2583.5801982363	1365.35595803426	137	2491.22177086699	1161.3685711827	139	1664.43002495975	915.013907405313	126.04072345119	2244.7836142785	1289.88370344725	128	2444.47837701461	301.452787142658	126	825.536626191781	2682.52035672557	134.998672777103	4103.03599545593
357.963420461989	139.623465471039	800.951246095041	1693.19520792408	176.823887719531	2601.84700515538	1055.50862020582	138.082403674188	2220.14554265577	1752.64489410895	147.273072285668	2551.56408497913	1698.02666748644	127.04072345119	3786.25551760467	1531.91257181558	136	2251.71925859265	845.071647119248	125	1780.68400242186	1369.7287439036	147.552297649707	1974.07277036282	1185.30246555618	138.134876927986	2258.49989436096	1845.49763457457	162.004650252251	2583.60613916685	1366.2739481686	137	2490.81322109973	1162.03421724605	139	1663.98382369985	915.166007998805	126.023779221956	2244.91085292565	1290.32622926326	128	2444.93950968487	301.452248796543	126	825.218872682884	2683.090484601	134.995349747749	4102.855079177
357.987982998506	139.642431699174	801.518461412192	1693.14298949482	176.880125146052	2605.03251053015	1055.51590761854	138.061156926116	2221.78633150059	1752.66944114264	147.299508653192	2553.24877059229	1698.81325770646	127.023779221956	3789.03905421877	1533.09937097007	136	2254.20270630004	845.667431279114	125	1782.5136419499	1371.88766095057	147.587659333043	1977.59403057245	1186.29393834796	138.186018359229	2259.02854454932	1846.79142633314	162.001327222897	2583.87636644074	1367.20602398298	137	2490.63659142983	1162.70831772457	139	1663.72958655105	915.287608332229	126.011749802608	2244.85791631899	1290.69994866355	128	2445.12339102477	301.435962847507	126	824.825897467346	2683.59242458362	134.986922974495	4102.58063060271
358.026428105529	139.664433265496	801.943508703191	1693.15770383872	176.937515850987	2607.04373767713	1055.58637813707	138.04072345119	2222.86961954504	1752.85520632378	147.321422306136	2554.36998176384	1699.51099423866	127.011749802608	3791.32767405209	1534.21417845275	136	2256.56862090482	846.262613006174	125	1784.16350466742	1374.09064616322	147.627150008396	1981.14207290963	1187.25186500816	138.238351727076	2259.66606027444	1848.08331490962	162	2584.26879762838	1368.0909382422	137	2490.62537301536	1163.34070074519	139	1663.61014300405	915.368298944795	126.004650252251	2244.60056184093	1290.96742498538	128	2444.93266296443	301.401900931791	126	824.333214819571	2683.98489191008	134.971570525793	4102.17391191578
358.074238758795	139.687955726331	802.211405143998	1693.18465314229	176.990770253422	2607.91592339599	1055.69339487531	138.023779221956	2223.39113318418	1753.18229000617	147.333977653745	2554.9651113634	1700.15039748274	127.004650252251	3793.22885892543	1535.26983446326	136	2258.81725335499	846.873203267324	125	1785.67264616527	1376.33880805831	147.664962322244	1984.7109623764	1188.1424190144	138.286676330094	2260.3182413513	1849.34873940634	162	2584.71622380903	1368.89873297474	137	2490.73187548088	1163.91761375211	139	1663.60182856423	915.424653650487	126.001327222897	2244.15077345362	1291.14387447826	128	2444.35060827347	301.357161215988	126	823.735843920021	2684.30290415422	134.947526746202	4101.6046652794
358.125647181409	139.708661069375	802.316254602808	1693.14717717754	177.032196346704	2607.68908605195	1055.8013246997	138.011749802608	2223.37380247829	1753.60324416079	147.332373942595	2555.08209548066	1700.74777188239	127.001327222897	3794.86871317421	1536.23713957398	136	2260.92722461939	847.50086235446	125	1787.0758231086	1378.58068353843	147.697452671795	1988.25931514235	1188.95232455005	138.326598486648	2260.93386648482	1850.6015911248	162	2585.23784314763	1369.6239508415	137	2490.96546977388	1164.45163125087	139	1663.74024897594	915.492735131111	126	2243.57995086124	1291.29213021625	128	2443.47775551169	301.315906008277	126	823.061297790138	2684.63849369836	134.913736629031	4100.88394020547
358.175059867138	139.722254744405	802.267273251441	1692.98149906054	177.056773872752	2606.42939907059	1055.88002079864	138.004650252251	2222.8780066092	1754.06434873667	147.31484868404	2554.78428688326	1701.3062141206	127.001327222897	3796.37582658842	1537.05201979202	136	2262.85121384004	848.131482903104	125	1788.40268680513	1380.7155682714	147.721468996109	1991.70795602778	1189.6853036877	138.356153164551	2261.51773449332	1851.87340876795	162.001327222897	2585.93259434004	1370.28043302218	137	2491.39007631145	1164.97297098336	139	1664.11297660645	915.615656571021	126	2243.0271653811	1291.50210855948	128	2442.53592888731	301.294663859863	126	822.370782189677	2685.10159853083	134.872222622371	4100.07238009233
358.217901096695	139.722534361145	802.091487686588	1692.65457127154	177.060902934342	2604.2585926382	1055.90933918602	138.001327222897	2222.01049475294	1754.5089445759	147.282026077843	2554.15707033559	1701.8044004341	127.004650252251	3797.82481562801	1537.61946959237	136	2264.50616960883	848.734423453352	125	1789.65884734794	1382.59787886685	147.737200108269	1994.93165703275	1190.34313419849	138.374701104935	2262.14435533756	1853.1750833839	162.005977475148	2586.95563284547	1370.88257309366	137	2492.12206536701	1165.50823127053	139.001327222897	1664.83866982241	915.83099361247	126	2242.69277029646	1291.86680852678	128	2441.84921438362	301.309225753095	126	821.757574793451	2685.78133426946	134.824683837222	4099.29129450637
358.254467565536	139.707209437293	801.837724048509	1692.19088681024	177.045547426727	2601.39547539957	1055.8870389304	138	2220.92219530816	1754.900346612	147.237024504179	2553.31934194534	1702.20020008325	127.011749802608	3799.22681096346	1537.83871101353	136	2265.79165950211	849.268039589209	125	1790.83135299679	1384.06530479749	147.746575440962	1997.78074578299	1190.91586091993	138.382579232252	2262.90950894411	1854.47529577671	162.017727277756	2588.43382623372	1371.43583704354	137	2493.26407907749	1166.06549632667	139.004650252251	1666.01022416214	916.158732170811	126	2242.7948742353	1292.45150166608	128	2441.77018149623	301.3692001459	126	821.32520707799	2686.70793309793	134.775269472804	4098.68607195802
358.289594312437	139.67485598315	801.568762496288	1691.67317841046	177.015783222676	2598.17112407053	1055.83100648222	138	2219.79789400996	1755.22719464375	147.186018359229	2552.42390761477	1702.44250890813	127.023779221956	3800.5522952919	1537.63021581832	136	2266.62820296819	849.687527279291	125	1791.90077441351	1384.97419957786	147.753248954947	2000.11964584529	1191.37495691559	138.380585104483	2263.89908145493	1855.69167395669	162.040179276815	2590.42174149927	1371.93393076128	137	2494.87475728139	1166.63076982865	139.011749802608	1667.66539765656	916.593706173432	126	2243.52598692114	1293.27785471692	128	2442.60027897425	301.474909891632	126	821.16750765021	2687.83426328537	134.727984817372	4098.39687506027
358.331523014614	139.629604113677	801.350896756319	1691.22689956864	176.978239302177	2594.99537066277	1055.77156662096	138	2218.81806845128	1755.50313878811	147.136204150883	2551.63283705832	1702.48587300742	127.04072345119	3801.74396486534	1536.96384960446	136	2266.98371570749	849.957862009422	125	1792.8494551891	1385.23479898671	147.761648272924	2001.85886755335	1191.67625093383	138.369504244574	2265.15082694533	1856.71176549916	162.076252475754	2592.87391119305	1372.3619222916	137	2496.94293423471	1167.16495947078	139.025106444853	1669.76075139141	917.110467721747	126	2244.99428072393	1294.32315966573	128	2444.53506507703	301.621112519876	126	821.346219901492	2689.05499877246	134.687269094327	4098.52584579582
358.390043405438	139.575909530435	801.235093173759	1690.98011487686	176.941375547768	2592.27848295718	1055.74341071841	138	2218.12040588193	1755.75688392326	147.094236652574	2551.08646647197	1702.29742532444	127.061156926116	3802.75379914326	1535.86371918932	136	2266.90414545992	850.055380722174	125	1793.67611699897	1384.83005847481	147.774056355731	2002.99160992037	1191.76677488444	138.35118374084	2266.61839119496	1857.42170350906	162.126986822159	2595.63548148778	1372.70451217474	137	2499.36718468819	1167.62241896529	139.046700926337	1672.17385593431	917.659311259465	126	2247.18652304487	1295.53534773799	128	2447.63352790909	301.796177194189	126	821.876082303593	2690.21004343731	134.656003722895	4099.10812773422
358.471928392274	139.52141407022	801.249256889273	1691.01245070739	176.910667591451	2590.34260769753	1055.770536798	138	2217.77723299284	1756.01193792554	147.065550279303	2550.88268321639	1701.87394981209	127.082403674188	3803.54702272988	1534.41625055932	136	2266.50327400437	849.977268284491	125	1794.38970545714	1383.83238869192	147.791949144403	2003.59813683492	1191.59974278905	138.327920971944	2268.17672201988	1857.74460483742	162.188934303745	2598.49210364805	1372.95516721071	137	2501.98340707544	1167.96748220946	139.078884203872	1674.73914641599	918.180694705174	126	2249.95413631481	1296.86664565746	128	2451.82830905669	301.989391279149	126	822.724839846197	2691.13618600587	134.636809557488	4100.10346497494
358.579506765931	139.473761954243	801.386518932455	1691.32532890868	176.89075287345	2589.32421453091	1055.86220191732	138	2217.76703884875	1756.27897362741	147.052208696163	2551.04026847907	1701.22991356681	127.101082211157	3804.08881165439	1532.74179532633	136	2265.93728673289	849.734041690233	125	1794.99752884117	1382.38198679512	147.81573310396	2003.82836094957	1191.14424653928	138.302557628027	2269.63442126102	1857.66266081826	162.256392614069	2601.21756783865	1373.11475517254	137	2504.5917666611	1168.1892318961	139.122582951003	1677.28825467101	918.611758333977	126	2253.03176212403	1298.30442263203	128	2456.98895615422	302.191459921997	126	823.822293733943	2691.68780489722	134.62971000713	4101.41010467687
358.707790482631	139.439818881951	801.613371844775	1691.82499015485	176.882867505224	2589.1408547994	1056.00575439621	138	2217.99716294475	1756.54704980523	147.053800476695	2551.51524516094	1700.39551355154	127.113897378801	3804.31977319197	1530.97446025798	136	2265.35432302079	849.344002163565	125	1795.48603703835	1380.66588774424	147.844051947113	2003.86104009723	1190.39014430161	138.280265311625	2270.78300253231	1857.21689508939	162.322489708999	2603.63067194063	1373.18776004628	137	2506.99890753608	1168.31591702952	139.178661909808	1679.70308874181	918.896215040837	126	2256.09336038733	1299.89755346962	128	2462.98184961639	302.398317944461	126	825.085119580004	2691.76446180071	134.633551723836	4102.88805887404
358.848824171273	139.423108280306	801.880311020253	1692.35078137278	176.8861026212	2589.50757461413	1056.18178396284	138	2218.33302178334	1756.79879473844	147.065807178367	2552.21934879994	1699.40853841509	127.118459717673	3804.17520244657	1529.23660711689	136	2264.8708733089	848.82836188662	125	1795.82485610591	1378.88454581089	147.875138566887	2003.87642705056	1189.35472448126	138.265715836247	2271.46378181289	1856.50040966592	162.380140233968	2605.6485925388	1373.17690156267	137	2509.06909077741	1168.42091308709	139.244207230313	1681.95756049445	918.996328909236	126	2258.82984416508	1301.75353953375	128	2469.7162349327	302.608986753584	126	826.435184620742	2691.32364664512	134.64521842024	4104.391972734
358.992097476319	139.425437351225	802.134787451209	1692.71028728926	176.898917788843	2589.99218954444	1056.36445011705	138	2218.62947228782	1757.01484709736	147.083730897085	2553.03781570325	1698.30906166466	127.113897378801	3803.56883027822	1527.61806302489	136	2264.52894035152	848.205784598969	125	1795.95689002215	1377.21518941441	147.905846523203	2004.01004582074	1188.08554910921	138.26184103247	2271.61800623679	1855.63629475314	162.423811456249	2607.30017491133	1373.0802710395	137	2510.7451323096	1168.61316849543	139.314493571776	1684.11580570156	918.901127470193	126	2261.02236588106	1304.01775733281	128	2477.15824270522	302.824940132862	126	827.821642446371	2690.39450221524	134.660850416108	4105.81071218409
359.129519947359	139.443214701669	802.338543654054	1692.74365915938	176.917596325812	2590.12972170302	1056.53790696921	138	2218.77760952318	1757.19670815853	147.101082211157	2553.8701036405	1697.13421214825	127.101082211157	3802.41683412497	1526.16787426912	136	2264.29215829677	847.490825952255	125	1795.81082975829	1375.79067974535	147.934192821633	2004.33086787531	1186.65107096176	138.271874645361	2271.3100836588	1854.73713827709	162.45269922928	2608.69745124572	1372.88240951462	137	2512.03751594545	1169.00367450125	139.383646635115	1686.29120590167	918.626302853607	126	2262.5802980429	1306.81808901847	128	2485.29185415459	303.047464968313	126	829.220974995554	2689.05128825	134.676465743757	4107.08046890406
359.25613631843	139.469202315144	802.477988893402	1692.36455292419	176.938843073884	2589.54031626618	1056.70021993354	138	2218.73237845564	1757.36348070305	147.113897378801	2554.6538448676	1695.93200075198	127.082403674188	3800.66568399337	1524.90928121613	136	2264.05758653602	846.702150519564	125	1795.31859773114	1374.69661491835	147.957949325913	2004.84378479368	1185.14259312379	138.294689484828	2270.72208386408	1853.89077036973	162.467618400699	2609.99125845469	1372.56282462149	137	2513.00459436074	1169.68222766737	139.443839178743	1688.58804047945	918.211870062948	126	2263.54422051475	1310.21768387739	128	2494.05333242527	303.274302954105	126	830.630281837687	2687.40336108307	134.688072601501	4108.19319261704
359.37028999287	139.493941437395	802.563511963864	1691.58557962602	176.95927654881	2588.01814287358	1056.86057044949	138	2218.5110046201	1757.54401005973	147.118459717673	2555.35988101633	1694.75290495908	127.061156926116	3798.30411137947	1523.84566815087	136	2263.68776036583	845.861251782	125	1794.42581992892	1373.97535452871	147.974893555147	2005.49963359778	1183.65885434925	138.328065595496	2270.08883375448	1853.14171775638	162.472170370176	2611.28472573404	1372.09848668354	137	2513.69119793194	1170.68815938155	139.488749710543	1691.02897411554	917.713104136112	126	2264.03085469494	1314.17573509579	128	2503.24277915824	303.498495135185	126	832.043626029507	2685.56978680732	134.692495347528	4109.16675338018
359.473502400247	139.506761342639	802.6261831235	1690.51582484194	176.976220778044	2585.59369515616	1057.03545341519	138	2218.18658559903	1757.76483864624	147.113897378801	2555.99026558433	1693.65418794904	127.04072345119	3795.37475419411	1522.98078646581	136	2263.05327334917	844.997481725489	125	1793.1041075653	1373.64099151519	147.983599945141	2006.22390891483	1182.30236770785	138.366689850085	2269.63485776985	1852.50348294285	162.470083591428	2612.59236575149	1371.48004117192	137	2514.10546832669	1172.0059216217	139.513594297535	1693.52826925492	917.192175543833	126	2264.1640906499	1318.53680070566	128	2512.47064228003	303.708829985488	126	833.429149667152	2683.65947707513	134.687419058904	4110.00255104938
359.569257909506	139.501655920051	802.702204139322	1689.3335926974	176.988250197392	2582.51847050214	1057.24360126814	138	2217.85205979581	1758.03851489706	147.101082211157	2556.55122901337	1692.70173120077	127.025106444853	3791.96620500087	1522.33499696299	136	2262.06741337876	844.149287183339	125	1791.35405691218	1373.70220529063	147.983599945141	2006.93775886722	1181.17307811904	138.405246678821	2269.51590494449	1851.98534686407	162.465093537495	2613.82649090436	1370.73027666358	137.001327222897	2514.21388181143	1173.57742153729	139.517295644064	1695.90525279629	916.706165620784	126	2264.01170368782	1323.05147873579	128	2521.17283408775	303.893192660993	126	834.718098679019	2681.76162492315	134.672341489341	4110.6633594922
359.659783013246	139.4753590758	802.816233585878	1688.23552725576	176.995349747749	2579.18107712763	1057.49519403425	138	2217.57764385504	1758.35141979768	147.082403674188	2557.02051177888	1691.96368848778	127.016400054859	3788.20729327924	1521.94560690782	136	2260.71766100249	843.362136929115	125	1789.20807485793	1374.16676931298	147.97356633225	2007.58280266464	1180.3567609308	138.438062044108	2269.78777366673	1851.60897880625	162.459448678132	2614.83781164147	1369.90374630552	137.004650252251	2513.96735489269	1175.31775626485	139.502194266166	1697.94262368954	916.302190071791	126	2263.5631908971	1327.43040064826	128	2528.70490307654	304.042041163523	126	835.811973331894	2679.95283700384	134.646823152477	4111.08384624638
359.748052490494	139.430125258311	802.973507660108	1687.38708984147	176.998672777103	2575.99672892229	1057.79126383907	138	2217.38602161272	1758.6711671121	147.061156926116	2557.33884798831	1691.49178553545	127.016400054859	3784.22127013555	1521.84598559986	136	2259.0489079063	842.676819504088	125	1786.71532879829	1375.02775057695	147.953299073663	2008.11177342252	1179.91742850918	138.461906258182	2270.40509691556	1851.41934805488	162.453743776524	2615.47481097854	1369.08375583206	137.011749802608	2513.33629317225	1177.1351187997	139.47365606079	1699.45556223418	916.008975691768	126	2262.73562930259	1331.40035584765	128	2534.47393782846	304.151454368469	126	836.602916959673	2678.29062597655	134.613287234595	4111.18183713275
359.834844918211	139.3736357399	803.151343841218	1686.88180105022	177	2573.27751383501	1058.11963933306	138	2217.23222092346	1758.94686932213	147.04072345119	2557.4000644223	1691.31800621479	127.025106444853	3780.11766194619	1522.05136825145	136	2257.14629020909	842.1256939646	125	1783.94127418399	1376.25511388843	147.921115796128	2008.49248297689	1179.8962627196	138.476472889014	2271.25168441176	1851.49068600909	162.447852536066	2615.64343471555	1368.37023582948	137.023779221956	2512.33258696917	1178.95392140205	139.439442918267	1700.34573994025	915.838024641274	126	2261.42734992424	1334.76097788585	128	2538.09924531849	304.226379621326	126	837.010655799904	2676.82939114755	134.576176125897	4110.91016796125
359.919714104178	139.315122959755	803.306205573846	1686.73167142041	177	2571.15135750093	1058.45886943426	138	2217.00874810008	1759.12812900886	147.023779221956	2557.06849050987	1691.43227304525	127.04072345119	3775.936328051	1522.52817144139	136	2255.08134632598	841.720727865082	125	1780.94444261758	1377.76579187132	147.8760898261	2008.66922824064	1180.29345136161	138.482444851566	2272.17019986213	1851.88422186484	162.440080568241	2615.32533297396	1367.84637458223	137.04072345119	2511.00558432099	1180.70883341242	139.406469085262	1700.61688294985	915.782822610571	126	2259.57054194096	1337.41422256023	128	2539.51046417849	304.278155040206	126	837.010947014661	2675.61312261748	134.539980955048	4110.29254396964
360.002631728118	139.263168255366	803.387860791896	1686.88708290868	177	2569.56308252453	1058.78530498163	138	2216.58083343688	1759.18059800924	147.011749802608	2556.22391252064	1691.78332853732	127.061156926116	3771.6701227812	1523.19225666281	136	2252.88979773295	841.451176342241	125	1777.78104550654	1379.42095501802	147.816687837942	2008.56070551271	1181.06912415451	138.482471044011	2272.98643768551	1852.62390955439	162.428932425177	2614.55684181784	1367.56120480624	137.061156926116	2509.40711178857	1182.35154473598	139.378996244922	1700.34833025209	915.82251076792	126.001327222897	2257.16110081601	1339.36753364032	128	2538.94873060492	304.320895287215	126	836.643105645074	2674.67170495041	134.510620901478	4109.41233731575
360.083730897085	139.224463328309	803.353982968862	1687.26703390004	176.998672777103	2568.34211675072	1059.07845416414	138	2215.83332704808	1759.09389796025	147.004650252251	2554.80698469803	1692.28171599219	127.082403674188	3767.26147055525	1523.91402611067	136	2250.553443447	841.282814170752	125	1774.4967087134	1381.0336166973	147.742715744182	2008.05088965477	1182.1392613735	138.477253899709	2273.54697929201	1853.66551663767	162.412768382018	2613.40546192486	1367.51539047017	137.082403674188	2507.57660403764	1183.84302660876	139.358794182036	1699.66116656271	915.928711688982	126.004650252251	2254.28047669074	1340.70986659327	128	2536.9031354474	304.366696705717	126	836.005945161779	2674.0122347966	134.489653770146	4108.40883843007
360.164257661406	139.203768354661	803.185395505514	1687.79519712688	176.995349747749	2567.29636225788	1059.3271830059	138	2214.70635006526	1758.88522658399	147.001327222897	2552.84916695056	1692.82025387206	127.101082211157	3762.66778240801	1524.55238363613	136	2248.03490598418	841.168232424839	125	1771.14459196041	1382.40055874569	147.655749731121	2007.02027763753	1183.38468411129	138.468666006856	2273.72262393173	1854.89335738008	162.391098726058	2611.91313386632	1367.66587266063	137.101082211157	2505.50713650723	1185.15508569631	139.343018825447	1698.66568141428	916.070757261725	126.011749802608	2251.07047132737	1341.57008794719	128	2533.96032339004	304.422775664521	126	835.225469354404	2673.61379818712	134.478170563	4107.42313344633
360.24665652842	139.199450359056	802.890440791257	1688.41921452624	176.988250197392	2566.31365425348	1059.53139283561	138	2213.22980442783	1758.59192914443	147	2550.49135166499	1693.29539066425	127.113897378801	3757.90125066571	1524.98498037326	136	2245.31369455956	841.054747787565	125	1767.78873194552	1383.33949068528	147.559229858837	2005.37783541764	1184.66554534559	138.456651646613	2273.4291031586	1856.13691250523	162.363213160188	2610.09082981678	1367.94139491345	137.1138973788	2503.16647101009	1186.26911368674	139.327139961249	1697.44230739305	916.219633553337	126.023779221956	2247.70802003979	1342.07341670143	128	2530.659569776	304.487545536554	126	834.424448489165	2673.4207616022	134.472958225872	4106.57027137714
360.329846020477	139.209093724153	802.503757125607	1689.10110873618	176.974893555147	2565.40651433847	1059.6933187795	138	2211.51586978406	1758.24626331708	147	2547.9549832558	1693.63374618549	127.118459717673	3753.06734840744	1525.14421238267	136	2242.43383369059	840.897610135169	125	1764.51315048633	1383.73158613024	147.45814764768	2003.10325435042	1185.83993173424	138.441467976081	2272.63156079558	1857.20733818462	162.329043047154	2607.92623767882	1368.26108200957	137.118459717673	2500.52604853517	1187.17110429028	139.306591048095	1696.03255098523	916.350885720978	126.04072345119	2244.35588311038	1342.30974520308	128	2527.39297267955	304.553252383689	126	833.6897907803	2673.3507041804	134.470420944814	4105.90957264133
360.41101344406	139.227384972989	802.073229676956	1689.81037288934	176.953299073663	2564.69644561599	1059.81902650499	138	2209.73381353208	1757.86798364047	147	2545.49601309698	1693.79398993571	127.113897378801	3748.37001882728	1525.02086347825	136	2239.53452689174	840.663356820278	125	1761.41751341331	1383.53627123834	147.358366466975	2000.27525093144	1186.78618775128	138.425151097	2271.33377433009	1857.9470822397	162.289480602522	2605.39750566302	1368.55982202506	137.113897378801	2497.58805843722	1187.86555298268	139.277730799914	1694.45855860703	916.443207890879	126.061156926116	2241.13721381111	1342.32471566247	128	2524.36300375436	304.607297341594	126	833.058238825798	2673.2904785984	134.466403604937	4105.44920016239
360.483401623375	139.250192571548	801.647423954995	1690.5037287319	176.921115796128	2564.3558497572	1059.91442806821	138	2208.07078233589	1757.45368328833	147	2543.35260803196	1693.7836485003	127.101082211157	3744.09423470848	1524.67460467035	136	2236.85114096999	840.339393003268	125	1758.61238076105	1382.8065206708	147.265715836247	1997.08058966811	1187.4180151494	138.408586863629	2269.58821615634	1858.2648167192	162.244736287061	2602.52680862451	1368.79705761132	137.101082211157	2494.43018032435	1188.37940711372	139.24008603481	1692.7671410581	916.4803361444	126.083730897085	2238.11293099329	1342.13288674103	128	2521.58815067478	304.636800046923	126	832.513190681228	2673.12196731823	134.457458074757	4105.13779358342
360.538970107197	139.273858033964	801.260589527194	1691.11588722583	176.874762603203	2564.51661631084	1059.98436987039	138	2206.68021553802	1756.98416551196	147	2541.68707260371	1693.63799048143	127.082403674188	3740.52628327322	1524.19953919966	136	2234.66916545181	839.92703856172	125	1756.18949437416	1381.66243907582	147.185067100016	1993.78407622047	1187.70325838787	138.394331072687	2267.49087068757	1858.17070587721	162.19656291085	2599.41166843613	1368.97048053257	137.082403674188	2491.21784898264	1188.767665337	139.195235687953	1691.05188547973	916.455139016822	126.105732463407	2235.28337089415	1341.74066554385	128	2518.97069197616	304.632149794673	126	831.997653769187	2672.74422902049	134.441875060919	4104.89471929988
360.569650538663	139.297549342542	800.926026292361	1691.55479808063	176.810710362794	2565.1988337137	1060.0299648088	138	2205.65310923819	1756.43070829264	147	2540.5708428912	1693.41028219571	127.061156926116	3737.88671992439	1523.70304793999	136	2233.26308322947	839.439605897002	125	1754.20732792269	1380.26657618759	147.119607655062	1990.68520211211	1187.66068824965	138.386018405256	2265.17493180098	1857.76244135123	162.148210852555	2596.22773246251	1369.10488186569	137.061156926116	2488.18102435332	1189.10414873826	139.149538075452	1689.45770015988	916.368429764883	126.125647181409	2232.6008497106	1341.16817442889	128	2516.35816119688	304.590897286735	126	831.436304986294	2672.09352859769	134.419966215149	4104.62369482216
360.570463811809	139.32153293719	800.633568948863	1691.71415942437	176.724988466426	2566.2558189153	1060.05217523394	138	2204.99315418825	1755.77148457139	147.001327222897	2539.97183446352	1693.15111122984	127.04072345119	3736.28035979575	1523.27047259335	136	2232.8320798585	838.895718942092	125	1752.68047703531	1378.78724509724	147.070480148294	1988.07062327572	1187.35573502796	138.385850510229	2262.79951024799	1857.20206708923	162.103207600203	2593.21334182808	1369.23900920161	137.04072345119	2485.57377985548	1189.46258073118	139.107857852454	1688.15431937645	916.228919602158	126.142238939629	2229.98690073663	1340.45535097486	128	2513.59536478722	304.516396136228	126	830.752873296778	2671.15513242404	134.392425948955	4104.23052445958
360.540704414931	139.34528944147	800.354681248528	1691.4902944548	176.614243231409	2567.38339107407	1060.04748981828	138	2204.62165543622	1754.99798337095	147.004650252251	2539.77516545729	1692.89322728039	127.023779221956	3735.64675302421	1522.94155297948	136	2233.43679897663	838.313445190624	125	1751.56949226202	1377.36662528314	147.036856247461	1986.16100687083	1186.89296408757	138.396288079472	2260.53175796954	1856.68613877443	162.064502673146	2590.62612546559	1369.41693074885	137.023779221956	2483.61400994059	1189.90068470619	139.076252475754	1687.28503342462	916.049276444874	126.15462082999	2227.34686141393	1339.65922046459	128	2510.55462934169	304.41706538826	126	829.891455638511	2669.9624787804	134.360665579308	4103.64195831798
360.482860148773	139.369250820279	800.050657921556	1690.80568018057	176.476999907935	2568.16196370385	1060.00584414158	138	2204.38673821156	1754.1178125723	147.011749802608	2539.80539320944	1692.64008738785	127.011749802608	3735.75206053598	1522.70324666427	136	2234.96729854397	837.707066785534	125	1750.78234206621	1376.10201680346	147.016400054859	1985.0692228757	1186.38759831198	138.418377355587	2258.51827671638	1856.38448247921	162.036856247461	2588.68193173298	1369.66303551216	137.011749802608	2482.42083291334	1190.43153063708	139.05930824652	1686.91739720282	915.842033300201	126.162239137273	2224.58083626491	1338.83446248027	128	2507.14626332874	304.30316800946	126	828.821328347409	2668.58178935298	134.326522991124	4102.8060901811
360.403825980324	139.391619916719	799.682824871683	1689.63202653486	176.314760770662	2568.16014131451	1059.91589368591	138	2204.10170285867	1753.15305807604	147.023779221956	2539.86561362035	1692.37375364781	127.004650252251	3736.23461309901	1522.50463089943	136	2237.1564218523	837.087731081508	125	1750.1914363619	1375.04602383945	147.005977475148	1984.78782337204	1185.95049932242	138.452519943772	2256.86233503452	1856.41790341637	162.021050307109	2587.51027443209	1369.98258596527	137.005977475148	2481.98592879514	1191.02750894914	139.058450728946	1687.01808182778	915.614162173663	126.164807348377	2221.59377890452	1338.02476978145	128	2503.3172178499	304.184284051495	126	827.54210644478	2667.09688766222	134.292559288608	4101.69694593804
360.31153807254	139.411912951896	799.215540142966	1688.00140133028	176.132575915769	2567.01437731498	1059.76199554793	138	2203.56250407397	1752.1319711423	147.04072345119	2539.74979155324	1692.05717503926	127.001327222897	3736.65672309133	1522.27200935345	136	2239.6251070564	836.462347467193	125	1749.64809706509	1374.20647785664	147.001327222897	1985.1881279334	1185.66414761159	138.496154739819	2255.60756460371	1856.82610169749	162.017727277756	2587.12521802377	1370.3539183035	137.005977475148	2482.17017497975	1191.62503842989	139.071784653514	1687.45817909242	915.366816777742	126.162239137273	2218.31120369528	1337.25057060364	128	2499.0560163114	304.067134401264	125.998672777103	826.079882600193	2665.58623563155	134.259809119023	4100.31204613556
360.214712391071	139.428126392941	798.627659866225	1686.00573554436	175.938843073884	2564.52685384793	1059.53219735324	138	2202.59626231365	1751.08640254796	147.061156926116	2539.28357539797	1691.6479804413	127	3736.58257671759	1521.93636760286	136	2241.95252650821	835.834953511438	125	1749.00183116203	1373.5617413735	147	1986.04861682386	1185.56668221175	138.544680383458	2254.74313191293	1857.56571752811	162.025106444853	2587.4453783173	1370.73409764746	137.011749802608	2482.7491337418	1192.13979775807	139.095480699693	1688.05965168652	915.098532581818	126.15462082999	2214.6925770663	1336.51607551266	128	2494.39593459528	303.95657035164	125.995349747749	824.482009807299	2664.12272438787	134.230340472225	4098.6558429623
360.122582951003	139.441467976081	797.908459052403	1683.78389528299	175.744296958853	2560.68942154618	1059.22215313579	138	2201.07974688622	1750.04959424628	147.082403674188	2538.33391773106	1691.11164539819	127	3735.63038540112	1521.45248410723	136	2243.73956775194	835.206536465088	125	1748.11302812571	1373.06896348196	147	1987.07714509431	1185.64777233797	138.594229964596	2254.20368069844	1858.52229600579	162.04072345119	2588.30474714185	1371.06813538648	137.023779221956	2483.45553254429	1192.49140118258	139.124861433113	1688.63392159931	914.808492308207	126.142238939629	2210.76204643992	1335.81243022502	128	2489.44626833593	303.857222448217	125.988250197392	822.817408568326	2662.7686788978	134.206138224917	4096.76673611135
360.042833722609	139.451021904877	797.062278808954	1681.50572550692	175.560377796225	2555.68413159953	1058.8424081381	138	2198.96064872487	1749.05758940577	147.101082211157	2536.82568413589	1690.42333562118	127	3733.53932391878	1520.79738800132	136	2244.67784458881	834.57437159763	125	1746.87211082577	1372.66107714466	147	1987.95605116696	1185.84825507378	138.63855137217	2253.87638568207	1859.52453728577	162.061156926116	2589.47183285471	1371.29537690958	137.04072345119	2484.02202182983	1192.61237522739	139.15462082999	1689.01755876599	914.496616882281	126.125647181409	2206.61189524344	1335.12472804573	128	2484.38955917024	303.771757243398	125.976220778044	821.169983138617	2661.57185894994	134.188506588684	4094.71051359888
359.982024529905	139.458693859882	796.106569725867	1679.34896804855	175.397352910657	2549.83829978806	1058.4186019138	138	2196.2652061586	1748.14977028814	147.113897378801	2534.74944385029	1689.57558563173	127	3730.18819986756	1519.97280582593	135.998672777103	2244.58000288228	833.930599938461	125	1745.20484197706	1372.24817335581	147	1988.37360086794	1186.06772722735	138.673127237637	2253.60932597752	1860.37003605798	162.082403674188	2590.67930101763	1371.35683754556	137.061156926116	2484.219932547	1192.45975707465	139.179616643789	1689.09651937091	914.167348084256	126.105732463407	2202.40992569388	1334.43864346934	128	2479.48882982865	303.703943958751	125.95927654881	819.636653089365	2660.56851493212	134.179089624869	4092.59357035782
359.946401763703	139.465765954962	795.069729577663	1677.48493984121	175.262646798667	2543.55653765228	1057.99575917366	138	2193.09126639224	1747.36970884685	147.118459717673	2532.16071010095	1688.57698008582	127	3725.619186046	1518.98999074361	135.995349747749	2243.39913874586	833.262040380722	125	1743.0861820869	1371.71606765144	147	1988.06051606375	1186.18763128177	138.693560712563	2253.22480498808	1860.85751220544	162.101082211157	2591.6410943924	1371.20659764785	137.082403674188	2483.87645077322	1192.01990146143	139.196301052989	1688.80791006209	913.828932319521	126.083730897085	2198.36962118536	1333.74704664367	128	2475.04639222927	303.656138112658	125.938843073884	818.315810282456	2659.78453198547	134.179089624869	4090.54506971485
359.940686146416	139.473852567395	793.993355792385	1676.0647502813	175.159786931877	2537.28783999359	1057.6309439468	138	2189.6072652662	1746.76021695039	147.113897378801	2529.1884887251	1687.45553300542	127.001327222897	3720.02917110646	1517.86796114457	135.988250197392	2241.2192404478	832.556490337381	125	1740.54706818163	1370.9393704583	147	1986.8198231175	1186.09353494566	138.697175824402	2252.53843133976	1860.81685252968	162.113897378801	2592.0776342341	1370.8227385416	137.101082211157	2482.88481103213	1191.3109887687	139.202164422313	1688.13638272906	913.495340174235	126.061156926116	2194.72376338271	1333.05372815015	128	2471.36499431124	303.62996630277	125.917596325812	817.296772180727	2659.2344985077	134.188506588684	4088.71041001302
359.968420485479	139.48313998671	792.929536461726	1675.20506171874	175.088207426049	2531.47477961837	1057.38458134893	138	2186.03454987202	1746.35812350876	147.101082211157	2526.03124188007	1686.26351558836	127.004650252251	3713.75231739347	1516.63446836535	135.976220778044	2238.23740938447	831.807209661811	125	1737.67631008396	1369.8053754775	147	1984.55600002344	1185.69522778962	138.683562373144	2251.39822158936	1860.13539260456	162.118459717673	2591.76638381992	1370.2114223886	137.1138973788	2481.22503083163	1190.38153264596	139.196301052989	1687.11626212944	913.184984368968	126.04072345119	2191.67268463799	1332.37788236133	128	2468.6819919249	303.62583724118	125.898917788843	816.642165085495	2658.92460870998	134.20481100202	4087.20238311301
360.032143944011	139.493961026585	791.94321190922	1674.97315677622	175.044160945506	2526.54767003133	1057.30967077295	138	2182.63966053545	1746.18448503486	147.082403674188	2522.95655551902	1685.07529554379	127.011749802608	3707.23606118463	1515.32747099052	135.95927654881	2234.7357921965	831.018736943072	125	1734.62333003169	1368.24067353492	147	1981.2956793421	1184.94739654868	138.653927510008	2249.71919652013	1858.78178757177	162.113897378801	2590.584107666	1369.4125248514	137.118459717673	2478.96692939301	1189.30616986582	139.179616643789	1685.82767808107	912.922974967918	126.023779221956	2189.35137682781	1331.75510895136	128	2467.12524192659	303.641459809738	125.8861026212	816.375981679271	2658.85937330958	134.224362997078	4086.0854229484
360.130685815197	139.504711750518	791.107678400617	1675.37891399128	175.023704752903	2522.89445289825	1057.44065945822	138	2179.70708221424	1746.23911227207	147.061156926116	2520.27368594399	1683.98910610626	127.023779221956	3701.00407136676	1514.0044987172	135.938843073884	2231.0519648125	830.214927961359	125	1731.59301691166	1366.24259841013	147	1977.20321281685	1183.86037556695	138.613287234595	2247.52685554691	1856.81573366347	162.101082211157	2588.55230371862	1368.4972428894	137.113897378801	2476.27965684503	1188.17941683213	139.15462082999	1684.40013906885	912.734496794347	126.011749802608	2187.80204122875	1331.23022890777	128	2466.68064902595	303.674280737247	125.881540282327	816.475672875142	2659.03965284118	134.243409064164	4085.35891178609
360.260869143033	139.51220976104	790.494229722647	1676.37138409794	175.023704752903	2520.82351616738	1057.787837134	137.998672777103	2177.50105501217	1746.49672443309	147.039396228293	2518.28673637604	1683.11463379122	127.04072345119	3695.57717678557	1512.73899453447	135.917596325812	2227.53185561856	829.438809460458	125	1728.81406545528	1363.89292466716	147	1972.56731327525	1182.50059434068	138.566417322572	2244.9678957825	1854.38824545479	162.082403674188	2585.85840425719	1367.55680630849	137.101082211157	2473.41474138134	1187.10501789908	139.124861433113	1683.00182698847	912.641556177483	126.004650252251	2186.9759790961	1330.84863620548	128	2467.20271304252	303.7192839896	125.8861026212	816.879234235329	2659.46073057722	134.257030264044	4084.96879777091
360.417796685405	139.5130704071	790.161990858829	1677.847984573	175.042833722609	2520.51512598569	1058.33522083975	137.995349747749	2176.22126024114	1746.91206876681	147.019128969705	2517.23611265079	1682.56308703176	127.061156926116	3691.42013000348	1511.61881438067	135.898917788843	2224.49698036013	828.749003849417	125	1726.51922078772	1361.35381262061	147	1967.77684504757	1180.97882908306	138.519459566744	2242.30909332167	1851.71840802767	162.061156926116	2582.85161021299	1366.68747211508	137.082403674188	2470.68479998973	1186.18102672276	139.094153476797	1681.83287497781	912.659896915532	126.001327222897	2186.74527031079	1330.64905427045	128	2468.44408344501	303.773520047442	125.898917788843	817.492940195867	2660.11732020807	134.262020317978	4084.80869242995
360.593636808191	139.505804570831	790.144644351932	1679.66074271795	175.083557173799	2521.98835335514	1059.04042535947	137.988250197392	2175.96455119974	1747.41647326006	147	2517.24550972311	1682.41561442161	127.082403674188	3688.83056652982	1510.72075687178	135.8861026212	2222.18134020026	828.205555023826	125	1724.88706009251	1358.83354030569	147	1963.24631678916	1179.43858310706	138.47869175366	2239.89956328988	1849.07127050743	162.04072345119	2579.99657057774	1365.98248184931	137.061156926116	2468.42276013869	1185.49293792096	139.065807178367	1681.10184334779	912.793688986507	126	2186.95994979959	1330.65270134952	128	2470.13741439823	303.835044503676	125.917596325812	818.223154218185	2660.99243794141	134.257457979105	4084.78128807325
360.780705473351	139.48883288632	790.443339987385	1681.65203643527	175.148037129269	2525.08786940901	1059.84836602407	137.976220778044	2176.7056876155	1747.94060269353	146.980871030295	2518.29593378092	1682.71635666814	127.101082211157	3687.91219080114	1510.11019250145	135.881540282327	2220.71748238003	827.861250110842	125	1724.02407691006	1356.55597862832	147	1959.3629300955	1178.02728817648	138.447007436345	2238.09134866197	1846.70442563981	162.023779221956	2577.769386782	1365.50968475143	137.04072345119	2466.90551487963	1185.09364903978	139.042050674087	1680.97836013227	913.032233371996	126	2187.47398075555	1330.85723159528	128	2472.04370798691	303.903046850433	125.938843073884	818.988519812291	2662.04840540631	134.242887873503	4084.79744080652
360.971305968158	139.46404194705	791.025269164207	1683.6709168714	175.238867576711	2529.5130611382	1060.69594299004	137.95927654881	2178.30512828752	1748.41987261143	146.960603771707	2520.23734182588	1683.45095551995	127.113897378801	3688.5039418082	1509.82345320463	135.8861026212	2220.096146969	827.74325717752	125	1723.91759801011	1354.71591772529	147	1956.39935563851	1176.8775234634	138.426741856446	2237.16521507663	1844.82864318051	162.011749802608	2576.55391186849	1365.30871591704	137.023779221956	2466.3022805958	1184.9992502345	139.023779221956	1681.54905891619	913.352698749355	126	2188.18873489463	1331.2350419708	128	2474.00725131575	303.977876461768	125.95927654881	819.740455775098	2663.22222797905	134.220080274945	4084.83072266746
361.158402158168	139.434077675644	791.828328837519	1685.59431589165	175.35530223657	2534.87423489899	1061.52318043287	137.938843073884	2180.53184698239	1748.80758515075	146.938843073884	2522.82204110949	1684.54897810178	127.118459717673	3690.23116084861	1509.87239520346	135.898917788843	2220.19792622642	827.850289594382	125	1724.44694689875	1353.45144119952	147	1954.48196135185	1176.07867923203	138.418110294643	2237.25667083388	1843.56308113863	162.004650252251	2576.53293319698	1365.38173628906	137.011749802608	2466.62578651908	1185.18157363941	139.011749802608	1682.78299356032	913.718313773466	126	2189.04714547503	1331.72848400588	127.998672777103	2475.94171666687	304.058525197998	125.976220778044	820.458912086397	2664.42009808605	134.191366446397	4084.89677905324
361.335966219293	139.404984217535	792.768781681418	1687.34204348958	175.494570617858	2540.74772553599	1062.28287488474	137.917596325812	2183.10285420196	1749.0819808931	146.917596325812	2525.74803997003	1685.90071426653	127.115224601697	3692.57853602436	1510.25405523977	135.917596325812	2220.83244243385	828.151596032818	125	1725.40340208764	1352.83620721041	147	1953.58379489054	1175.67266089701	138.41900944334	2238.3131885278	1842.92789239852	162.001327222897	2577.62987140352	1365.70059751773	137.004650252251	2467.71891680626	1185.58070073537	139.004650252251	1684.51557332643	914.085172998655	126	2190.02701552344	1332.25640062783	127.995349747749	2477.810430468	304.14047843945	125.988250197392	821.146073539982	2665.52990766522	134.160598305138	4085.05559437248
361.499044822156	139.381363415404	793.753574488517	1688.86864037592	175.650143482056	2546.73364527917	1062.94196980017	137.898917788843	2185.72869725999	1749.23968382094	146.898917788843	2528.70852343172	1687.37797859113	127.107059686304	3694.99611825984	1510.95817464652	135.938843073884	2221.7924818899	828.595763178867	125	1726.53234609971	1352.87948875594	147	1953.55332162635	1175.64815807245	138.426478319897	2240.11790716123	1842.84569986132	162	2579.53497526484	1366.21284087315	137.001327222897	2469.30093628369	1186.11557537535	139.001327222897	1686.47983004893	914.40808941529	126	2191.11397459654	1332.72305976799	127.988250197392	2479.58119492345	304.216734527915	125.995349747749	821.812462016257	2666.43337520293	134.132166131157	4085.39509965141
361.641257569341	139.368381961849	794.687051939838	1690.15626162362	175.813981640771	2552.46569325729	1063.48147303399	137.8861026212	2188.13456681891	1749.28747297681	146.8861026212	2531.41013113782	1688.85745989594	127.098803729047	3697.01771729575	1511.97087512169	135.95927654881	2222.9093049007	829.12137479356	125	1727.58529722022	1353.53672017654	147	1954.16993812469	1175.9564935162	138.434368425724	2242.33469437308	1843.17836668628	162	2581.7723594477	1366.8563738054	137	2471.02041588655	1186.7048904263	139	1688.35057279047	914.650739120069	126	2192.27258992061	1333.03241179648	127.976220778044	2481.17917222864	304.276839158165	125.998672777103	822.459014418386	2667.03535391077	134.110553531655	4085.99683116867
