Light	Light	Light	Light	Light	Light	Light	Light	Light	Light	Light	Light	Light	Light	Light	Light	Light	Light	Light	Light	Light	Light	Light	Light	Light	Light	Light	Light	Light	Light	Light	Light	Light	Light	Light	Light	Light	Light	Light	Light	Light	Light	Light	Light	Light	Light	Light	Light
Optode1-730nm	Optode1-Ambient	Optode1-850nm	Optode2-730nm	Optode2-Ambient	Optode2-850nm	Optode3-730nm	Optode3-Ambient	Optode3-850nm	Optode4-730nm	Optode4-Ambient	Optode4-850nm	Optode5-730nm	Optode5-Ambient	Optode5-850nm	Optode6-730nm	Optode6-Ambient	Optode6-850nm	Optode7-730nm	Optode7-Ambient	Optode7-850nm	Optode8-730nm	Optode8-Ambient	Optode8-850nm	Optode9-730nm	Optode9-Ambient	Optode9-850nm	Optode10-730nm	Optode10-Ambient	Optode10-850nm	Optode11-730nm	Optode11-Ambient	Optode11-850nm	Optode12-730nm	Optode12-Ambient	Optode12-850nm	Optode13-730nm	Optode13-Ambient	Optode13-850nm	Optode14-730nm	Optode14-Ambient	Optode14-850nm	Optode15-730nm	Optode15-Ambient	Optode15-850nm	Optode16-730nm	Optode16-Ambient	Optode16-850nm
411.755154948141	142.733329429772	800.482782979947	1350.62829047176	180.566417322572	2192.04890385228	1685.14468674593	143.042050674087	3071.49213079018	1966.83646109613	159.344084190483	3350.57406351047	1409.40565328801	132.497805733834	2885.75671511673	1334.04293941889	148.077556980975	2246.86670874416	745.78397723824	130.243141865278	1390.10571668339	952.766725814211	148.200684106353	1332.27135897493	920.205955398558	143.872222622371	1712.40956529826	646.069947688638	162.898119622694	819.449652608397	1099.09490699556	155.082403674188	1819.94232111706	567.124519665464	148.86757237012	672.912296525834	1157.01442342218	144.087053926439	2271.73495515573	1339.78535375573	137.088381149336	2382.9272809484	1009.10364598893	144	2206.29078083495	1044.3934196671	147.938843073884	1683.08801219605
412.022781515183	142.782895020996	801.256612940614	1352.1796303662	180.663635099347	2194.67111822872	1685.9078901106	143.065807178367	3074.14668847964	1968.09608626157	159.362125077477	3353.37094271192	1410.50977296423	132.478054103686	2890.01637754413	1334.9821941671	148.098803729047	2249.54735753	746.81606670986	130.255441354857	1393.00053064958	954.070694668793	148.280171836025	1334.69121374645	921.430652857777	143.913736629031	1715.47930449936	647.062099872416	162.975422611894	820.972340976135	1099.90381358348	155.101082211157	1822.47115096305	567.723509692674	148.901986826423	673.820845882315	1157.80929743067	144.112832013765	2273.69576117653	1340.80338761379	137.117482266015	2385.35928392106	1010.31350724409	144	2209.9563708671	1045.55808617406	147.95927654881	1685.62409909834
412.227678327112	142.834415115697	801.89159044018	1353.43446366392	180.750880659575	2196.82460840597	1686.37136848216	143.095480699693	3076.14679737139	1969.01634586233	159.376717900755	3355.47407991836	1411.42245963944	132.474655899857	2893.61286323383	1335.64797218779	148.12618865601	2251.54902923542	747.697335397179	130.280376983713	1395.42741454339	955.21142027016	148.361885937292	1336.67541284965	922.506213701981	143.947526746202	1718.31526267891	647.898357730332	163.037644903046	822.243573261522	1100.44975567983	155.115224601697	1824.57443641815	568.162058931365	148.923747524246	674.528301535398	1158.39288504994	144.137676600757	2275.22021190507	1341.52674441592	137.150753626262	2386.99198120769	1011.25135241474	144	2212.89367909738	1046.52690176057	147.976220778044	1687.69527076572
412.345442909641	142.88074007835	802.253650525492	1354.27286614275	180.817639097154	2198.04093759558	1686.46061620567	143.129511685363	3077.00113886616	1969.53061449682	159.390575231532	3356.42191566531	1412.02142362662	132.486143844604	2895.92379268353	1335.98046683468	148.15462082999	2252.51972222666	748.329627540364	130.314153770093	1396.99934282735	956.078466835351	148.435319684936	1337.90619475664	923.351348479492	143.971570525793	1720.53843549217	648.518092376	163.076953217961	823.089632623372	1100.67354043467	155.123109969924	1825.89330818566	568.41749326965	148.930847074603	674.94247791737	1158.68988095363	144.159183168863	2275.97434214425	1341.90862158782	137.18761264307	2387.56571036368	1011.87093545137	144	2214.83130695962	1047.23156509526	147.988250197392	1689.04505708754
412.359471194359	142.916465543877	802.228150674661	1354.6004603849	180.85583007446	2197.9070846693	1686.12421479858	143.166370632599	3076.30472286499	1969.59936046469	159.405927610661	3355.83606867257	1412.17267380428	132.510787117817	2896.36136434072	1335.92107593914	148.179616643789	2252.14962546648	748.614831281418	130.354149492007	1397.36016144608	956.546077603597	148.489815075579	1338.0755752528	923.872825790008	143.986922974495	1721.71645225835	648.85014005429	163.090192625897	823.317343153001	1100.50849710346	155.125647181409	1826.03241518034	568.465780735666	148.924438825482	674.960889089147	1158.63601302221	144.175054304917	2275.64217842962	1341.91521093097	137.227527558715	2386.87435311513	1012.1477791613	144	2215.5657599091	1047.61284312549	147.995349747749	1689.44758365885
412.260037056247	142.936899018804	801.728873214178	1354.3492271297	180.859319320153	2196.10975250008	1685.33337371663	143.203395865745	3073.7765206392	1969.20042183717	159.422410775655	3353.45493146541	1411.75087355895	132.543446636161	2894.42669400683	1335.41919787293	148.196301052989	2250.1942366489	748.465697313921	130.396990721564	1396.21317652138	956.493578265524	148.516925192975	1336.92167816655	923.971840714975	143.995349747749	1721.41325172272	648.817447987561	163.077377458253	822.735476856113	1099.88213714992	155.123534210216	1824.60066212539	568.28269906208	148.90829582131	674.479497213588	1158.19143740927	144.183485885345	2273.96333912651	1341.53792369825	137.268422033417	2384.79663235937	1012.08492133467	143.998672777103	2214.9744854721	1047.63362811099	147.998672777103	1688.73873021737
412.047056331659	142.939364530583	800.703777138721	1353.49981265342	180.825529202981	2192.46848636226	1684.0934584095	143.237024504179	3069.27812513541	1968.34398214164	159.436910444383	3349.15294205226	1410.65106541912	132.57932353208	2889.7487225989	1334.43499045365	148.202164422313	2246.4857376561	747.81216444383	130.440319708426	1393.34493817084	955.822278603685	148.511035631206	1334.25608400801	923.558234268946	143.997345554206	1719.25229454691	648.352604689964	163.03956995158	821.185422240912	1098.73248750042	155.118476873128	1821.27123181325	567.848534641012	148.884513540441	673.410315430183	1157.34156056224	144.183485885345	2270.75884956932	1340.79016366894	137.30794023362	2381.30637166765	1011.70478077043	143.995349747749	2213.01647161477	1047.28252151822	148	1686.83193401832
411.726261375675	142.923747524246	799.140024306358	1352.07481598183	180.755154948141	2186.95831801101	1682.43482365378	143.26332134843	3062.82121942721	1967.06258960583	159.444353128494	3342.94938426812	1408.81703984399	132.612659884443	2882.13981190652	1332.95549206252	148.196301052989	2240.95745570677	746.619228227349	130.482450364162	1388.65307644111	954.480726128499	148.471022432787	1329.99675193895	922.565386677747	143.995349747749	1714.98715185908	647.410298770348	162.978926975215	818.573120478021	1097.01438965451	155.110564049624	1815.84569313026	567.150728739617	148.857673146993	671.699630263823	1156.10796989004	144.175054304917	2265.94826926781	1339.71848244458	137.34194369444	2376.47136008503	1011.05070993333	143.988250197392	2209.71836509174	1046.58034730779	148	1683.72599651557
411.309125229492	142.893469370443	797.062628128397	1350.14352205702	180.650749707631	2179.71412920636	1680.41234240732	143.278704727177	3054.55583208152	1965.40980993343	159.439215118937	3335.00702731587	1406.25275389663	132.640306310128	2871.63086946029	1330.99915908681	148.179616643789	2233.66402449968	744.891192685972	130.521758679077	1382.16530114806	952.476966332831	148.398913870212	1324.18788209517	920.967186945402	143.988250197392	1708.54503606823	645.982054557815	162.897336574172	814.892147340705	1094.72089796078	155.099347903422	1808.2940289519	566.189293179032	148.827739805632	669.339180779708	1154.53883289715	144.159183168863	2259.57357525794	1338.38755535163	137.36723402446	2370.46264596379	1010.17247920721	143.974893555147	2205.17794700063	1045.57216891925	147.998672777103	1679.5133656381
410.810508122396	142.855112176798	794.531240573531	1347.81163052182	180.516396136228	2171.01307920686	1678.09572351609	143.280698854946	3044.74811177584	1963.45725076793	159.418375455703	3325.60972146958	1403.03335821275	132.660153602276	2858.48130106886	1328.62406558993	148.15462082999	2224.78353743898	742.680362412721	130.556416945326	1374.0428218421	949.88517031508	148.299132689508	1317.0001886293	918.784386690001	143.976220778044	1700.06253968828	644.099885805812	162.79798867075	810.235340431654	1091.88461046623	155.084137981923	1798.78598060526	564.980544281002	148.796516220876	666.378836193981	1152.70548052604	144.137676600757	2251.77043038224	1336.8759149957	137.380997751542	2363.50055126031	1009.12060955854	143.953299073663	2199.5162817323	1044.31936281692	147.995349747749	1674.34494302337
410.248572066389	142.816514114655	791.627855341555	1345.20895653588	180.358540190262	2161.22356319915	1675.5625414397	143.268518208791	3033.72466479987	1961.28659765346	159.381350222556	3315.1122914848	1399.2940033669	132.66927995871	2843.16175917212	1325.9221637265	148.124861433113	2214.61208334642	740.078775318563	130.582226032271	1364.57110215248	946.836503654752	148.177508410197	1308.7127875871	916.090499066621	143.957949325913	1689.8658772597	641.838885724716	162.683549817348	804.78434744914	1088.58518325645	155.063163032395	1787.67025664191	563.559255555663	148.76271363796	662.920642871467	1150.69521334625	144.112832013765	2242.77617900396	1335.26770639253	137.381350222556	2355.85954351654	1007.93922023605	143.921115796128	2192.89109992384	1042.89253998956	147.988250197392	1668.42799616581
409.641257569341	142.785020410043	788.446784465181	1342.47188319328	180.183485885345	2150.75101146966	1672.88629492501	143.243321150786	3021.82546358954	1958.98291196886	159.330375077225	3303.88799841066	1395.21700504158	132.667839335412	2826.30684649946	1323.01416982856	148.094153476797	2203.5349717684	737.212285882501	130.594932606687	1354.13089201525	943.502573544632	148.040353000102	1299.68054257042	913.003494687403	143.934192821633	1678.43702775562	639.306978934014	162.559229858837	798.789432998235	1084.94093541802	155.036056043485	1775.43756386037	561.974927089235	148.726927714332	659.113536593973	1148.59928166755	144.087053926439	2232.89804882278	1333.63888013624	137.367752781385	2347.82670905422	1006.66084257885	143.8760898261	2185.471272887	1041.35704625841	147.976220778044	1661.9913506621
409.008164915393	142.767642903526	785.082886946223	1339.73476128331	180	2139.98285857256	1670.13979102884	143.208050855597	3009.37013578567	1956.63603633697	159.27053500461	3292.28687161566	1391.00992305143	132.654422508224	2808.6440222335	1320.03616792311	148.065807178367	2191.98726822247	734.225691296972	130.589919835078	1343.15907583893	940.074752778139	147.893817103856	1290.29232224921	909.675823011306	143.905846523204	1666.35023718465	636.634787199447	162.430347561452	792.538094499572	1081.10039533801	155.002392587933	1762.6574824755	560.290955356261	148.690068767097	655.134096626253	1146.51132932225	144.062484149013	2222.48506568714	1332.05984872264	137.34118887619	2339.68107710938	1005.31139460982	143.816687837942	2177.43545813048	1039.77242640251	147.95927654881	1655.26515083301
408.368906280995	142.767642903526	781.624458040324	1337.11440537374	179.816514114655	2129.25081823274	1667.38524543561	143.166889389524	2996.63554365059	1954.32656083206	159.207612840713	3280.60264073464	1386.87785056123	132.628128792459	2790.92589181364	1317.12460406884	148.042050674087	2180.41520479211	731.265235551726	130.563626119313	1332.10832876987	936.739826227056	147.744934608827	1280.93373834201	906.278360380265	143.87381134399	1654.20319992267	633.962560437012	162.303093540407	786.322067218259	1077.22889676778	154.9634056104	1749.91121062577	558.57743899373	148.653471249011	651.167867055326	1144.52404487696	144.04072345119	2211.91387370389	1330.59389502017	137.304044799619	2331.69183993419	1003.91542204305	143.742715744182	2168.98147169719	1038.19308166031	147.938843073884	1648.47482690471
407.743005897957	142.783693187146	778.154745901561	1334.70995766679	179.640132586841	2118.82931452944	1664.68585852537	143.124454348275	2983.8760432126	1952.13339313855	159.148233570231	3269.0856422423	1383.01201913223	132.589155472053	2773.86573015281	1314.40773494495	148.023779221956	2169.2364616315	728.470542247976	130.516248743329	1321.41076444142	933.666091869215	147.602063581445	1271.95907270795	902.984200496595	143.840728917759	1642.55790480379	631.425585570057	162.185067100016	780.411464688004	1073.49509453434	154.923220505325	1737.7358157949	556.906766853635	148.619321419917	647.391726652493	1142.7226707713	144.023779221956	2201.5544699238	1329.29266514383	137.260803726135	2324.09678080153	1002.49842826618	143.657076954018	2160.31930261637	1036.66493082598	147.917596325812	1641.82218999046
407.150409258549	142.811863862404	774.751963016376	1332.60248431003	179.477626388625	2108.9466113171	1662.10637365648	143.086263370969	2971.34310992835	1950.12929660943	159.098013173577	3257.9565639415	1379.57820583421	132.538773666234	2758.1005834219	1312.00063782057	148.011749802608	2158.82216198114	725.964654208311	130.453046962692	1311.45656329263	930.996208026005	147.474897473778	1263.67730029596	899.955205401512	143.808633553603	1631.89766662278	629.146585055022	162.082229950902	775.039006555805	1070.05752511094	154.8861026212	1726.58898814372	555.35195351039	148.59006907643	643.95931068659	1141.1797971565	144.011749802608	2191.75572345861	1328.19785345776	137.215145668354	2317.10890086881	1001.09221770451	143.565207333984	2151.67875494406	1035.23109451848	147.898917788843	1635.49001813606
406.610256258902	142.844689597087	771.491638240089	1330.86132038768	179.332850237511	2099.80189638518	1659.71923461297	143.057123506049	2959.29846097084	1948.38177430313	159.061773758299	3247.42075852647	1376.71335565145	132.482022649101	2744.16773059394	1310.00258727918	148.004650252251	2149.48576581664	723.850596771746	130.382936244401	1302.57902196034	928.843297514436	147.374356737222	1256.3481619832	897.327461819069	143.778592502158	1622.60558320776	627.227671458067	161.999826276713	770.392765028121	1067.05617793359	154.855910342948	1716.83209554554	553.979325022038	148.56589139431	640.996349811841	1139.95257210378	144.004650252251	2182.83289919302	1327.33874402683	137.171020884849	2310.91221019948	999.733379401727	143.475874925436	2143.30241334181	1033.9318316611	147.886102621199	1629.63879668094
406.139283898803	142.874340400738	768.447927428877	1329.54258157645	179.207988804398	2091.59288944895	1657.59735100516	143.040179276815	2948.02593579861	1946.9466709594	159.041506499712	3237.68605158633	1374.52038957212	132.425153134827	2732.49416345239	1308.49223027595	148.002654445794	2141.47522775866	722.206155433826	130.318355306384	1295.04958831329	927.291247474445	147.309347725005	1250.18263354784	895.199419917434	143.752461874246	1614.94973978652	625.743977218356	161.940424288555	766.610800844894	1064.59723502646	154.83564308436	1708.72266200832	552.845482493097	148.547738785604	638.59222096683	1139.07345942043	144.001327222897	2175.04847307343	1326.7296952355	137.132166131157	2305.65837942061	998.458577594745	143.399872966687	2135.43532876699	1032.80108076293	147.881540282327	1624.40983578906
405.750320106566	142.894773875664	765.692481203896	1328.69216968691	179.103990648725	2084.52266230061	1655.80874334022	143.036856247461	2937.82244652463	1945.86471890888	159.038183470358	3228.96254061999	1373.06506385589	132.377594552972	2723.3863189802	1307.52639517244	148.005977475148	2134.97463819488	721.082695913859	130.26983703175	1289.07063024836	926.391727567065	147.286773754036	1245.33858457307	893.632118549231	143.730792218287	1609.08051035004	624.74380823267	161.903829898955	763.780790167832	1062.75405864091	154.824945695083	1702.41568426865	551.994607705077	148.535447937107	636.801597228694	1138.55298002559	144	2168.59951146711	1326.37215179177	137.101458174841	2301.46211317529	997.305084022295	143.347945787148	2128.30716130311	1031.87029919354	147.886102621199	1619.92103596335
405.452657433196	142.90331404932	763.29006503877	1328.34344063403	179.021073024785	2078.7927928502	1654.40787785306	143.045373703441	2928.96568664783	1945.15724805589	159.051351178588	3221.44570695906	1372.36895769474	132.348197879038	2717.03335427789	1307.1310074566	148.017727277756	2130.10650619447	720.499271314662	130.245267254324	1284.77562596912	926.161843355837	147.308020502108	1241.92347103731	892.639672585285	143.714200460066	1605.04624130826	624.243895089865	161.887517757475	761.945978485266	1061.55704829771	154.821687861432	1697.97864927055	551.452869112297	148.528182100837	635.649311180417	1138.38508612543	144	2163.61182731604	1326.26306562732	137.082207233226	2298.3982951719	996.308194325105	143.328453977034	2122.11391075268	1031.1670579087	147.898917788843	1616.26717365504
405.250047315746	142.901196270953	761.295744117213	1328.51333220102	178.959102825523	2074.5967861658	1653.43001004666	143.06381137191	2921.7003052329	1944.82837329085	159.080211426769	3215.31379498073	1372.4096899698	132.343295534898	2713.49336757857	1307.30007725125	148.041506499712	2126.92393179562	720.444432069357	130.244919520912	1282.22167966743	926.581548117105	147.368379262075	1239.98444702371	892.197503920155	143.703573507663	1602.79271324042	624.232047655799	161.888757066993	761.098400513354	1060.99731167412	154.82292717095	1695.38874513278	551.225987349893	148.527016356678	635.126304820708	1138.55489964299	144	2160.14502882142	1326.39973897807	137.078906921548	2296.50649896008	995.501191149505	143.345398206268	2117.0064092143	1030.71763815156	147.917596325812	1613.52311157613
405.143511948589	142.892940313696	759.753550018483	1329.20409114447	178.916645066599	2072.09657623566	1652.89183325358	143.087053926439	2916.21620240689	1944.87254144303	159.1239101739	3210.7172603808	1373.12538527461	132.367052039178	2712.70246218793	1307.998854189	148.082229950902	2125.4165262699	720.879676998402	130.26438861335	1281.39478271057	927.599787275353	147.458497418919	1239.50819219514	892.250712650024	143.70008426197	1602.19043753739	624.66899079622	161.903568041094	761.186849189277	1061.03444509883	154.826011060119	1694.55517959819	551.302831974627	148.533194872447	635.19679518199	1139.04832333353	144	2158.19762674267	1326.78302376237	137.092932147353	2295.78223778461	994.913957769904	143.397352910657	2113.07454144267	1030.54559876294	147.938843073884	1611.73258154836
405.131243389056	142.884775398303	758.687665757685	1330.39940648461	178.893407319244	2071.38536768632	1652.79051881369	143.112832013765	2912.61247498049	1945.27635818678	159.183312162058	3207.74552373943	1374.42557996609	132.417244910982	2714.48523015086	1309.16837578639	148.143386877018	2125.51447070242	721.747218868596	130.295191016726	1282.21622414206	929.138351624361	147.565207333984	1240.42270927265	892.725995489515	143.704983131342	1603.06801130196	625.495789671286	161.92934612842	762.126649597645	1061.60511591746	154.830542399373	1695.34219238386	551.655106705469	148.549035078455	635.803581298015	1139.85682474746	144.001327222897	2157.71702781544	1327.41941511808	137.126707205419	2296.17737062236	994.570274903838	143.477626388625	2110.34361198669	1030.6696172002	147.95927654881	1610.9052340305
405.208424406346	142.881540282327	758.099032761612	1332.06109400882	178.888844980371	2072.46094255113	1653.10494456624	143.137676600757	2910.88840970424	1946.02066639512	159.257284255818	3206.41576293944	1376.20595105543	132.487383154123	2718.56345026795	1310.73602014291	148.225790551206	2127.08674856052	722.978204949544	130.32538849806	1284.54640102607	931.103245905378	147.674454460534	1242.59797673897	893.546253008405	143.719213231676	1605.22211726963	626.641693712189	161.963949518737	763.79876457083	1062.63740219631	154.83643363983	1697.5705546617	552.243979955475	148.576974292047	636.86797408589	1140.97349188924	144.004650252251	2158.6044788021	1328.3098557316	137.176640326762	2297.58749557743	994.483531062242	143.575629913695	2108.77097149717	1031.09479033173	147.974893555147	1611.00303838895
405.367254279575	142.886102621199	757.963269719635	1334.12439809244	178.902502676058	2075.20280206822	1653.79048492363	143.159183168863	2910.93268170096	1947.07212327215	159.344250268879	3206.65667459111	1378.35487925711	132.568024162209	2724.57892719782	1312.62283428498	148.326872762363	2129.95593032336	724.498232054799	130.347843556032	1288.19741746664	933.392071876331	147.774209448794	1245.85420341213	894.639574497685	143.742969735956	1608.44135638344	628.032484700305	162.004650252251	766.063551377847	1064.05906639452	154.84537917001	1701.03608298132	553.024830231021	148.617322554547	638.296980199369	1142.38443018462	144.011749802608	2160.71471193053	1329.43811039692	137.23728636204	2299.84284378167	994.649171806765	143.679104712785	2108.24726865739	1031.80352543787	147.983599945141	1611.92843369892
405.594169813281	142.898917788843	758.221503753396	1336.48861450845	178.934446813408	2079.34402243619	1654.77390360228	143.175054304917	2912.49782932707	1948.37101257439	159.440770141163	3208.26995363859	1380.75929799749	132.648282650645	2732.09794108291	1314.74252387884	148.440770141163	2133.89367533453	726.229477368388	130.358633665861	1292.92779661411	935.895579524721	147.856613122982	1249.96511493944	895.939375329563	143.775357386182	1612.50866041515	629.591625983378	162.049127506768	768.765246789203	1065.79346302667	154.857761060371	1705.50359117453	553.948317494043	148.669624922775	639.985381544124	1144.05492919863	144.023779221956	2163.83245409424	1330.76050668611	137.301242960926	2302.68935951224	995.039244085355	143.775536671691	2108.58749941519	1032.7480864887	147.983599945141	1613.50791396333
405.869523280832	142.917596325812	758.780676519069	1339.01888312697	178.983426221855	2084.47668088593	1655.95327063424	143.184813108242	2915.2088871303	1949.82689215568	159.54185235232	3210.93061387415	1383.29767983236	132.718130489989	2740.6063168211	1316.99440700645	148.559229858837	2138.61089464213	728.084120940903	130.360396331964	1298.43729320499	938.494302756586	147.917770049098	1254.65207939916	897.380189285591	143.813195892475	1617.18168969837	631.243480625927	162.094433093536	771.730575818384	1067.75805228602	154.874352818591	1710.68840880374	554.961265973209	148.72946499539	641.816274759862	1145.91273917495	144.04072345119	2167.66782581917	1332.19177694265	137.360134474102	2305.80204096786	995.596371581896	143.856613122982	2109.54555034624	1033.84627087118	147.974893555147	1615.49906876482
406.167883996636	142.938843073884	759.515030552169	1341.54981402489	179.045373703441	2090.06610099765	1657.20532385668	143.189463360493	2918.56928099605	1951.3226472302	159.641633533025	3214.18033413622	1385.83858933433	132.77088641944	2749.50298299905	1319.26305102998	148.673127237637	2143.74395335701	729.964247877399	130.358794182036	1304.35460752045	941.059062238436	147.958493500288	1259.58511509274	898.884639859289	143.853544085403	1622.17397928442	632.905421856886	162.137155410096	774.76891162061	1069.84550926563	154.894267536593	1716.23818867531	556.002688918938	148.792387159287	643.661072774703	1147.84650007478	144.061156926116	2171.84050673047	1333.61525159461	137.406346036355	2308.79673808439	996.241014625139	143.917770049098	2110.81747632771	1034.98991538868	147.95927654881	1617.60327323492
406.457945407282	142.95927654881	760.27616071468	1343.89644781186	179.114586951723	2095.49273468231	1658.39487101144	143.191454359776	2922.00049790606	1952.72273436654	159.734284163753	3217.46207692187	1388.23444507785	132.803183097375	2758.12474790676	1321.41236087613	148.774209448794	2148.8654421014	731.755707106206	130.361618738405	1310.24739192402	943.446897756141	147.982272722244	1264.39287270626	900.357679932626	143.892489880959	1627.13456507829	634.487358485645	162.17372708202	777.672848982218	1071.92085146424	154.916269102915	1721.72175553473	557.004009276033	148.851766429769	645.378473686082	1149.70243055894	144.082403674188	2175.88928802355	1334.88335453504	137.436387087799	2311.2656653467	996.872094885237	143.958493500288	2112.06648791754	1036.05143145388	147.938843073884	1619.49323253583
406.707658555428	142.976220778044	760.905904930331	1345.87821418753	179.183485885345	2100.10983524828	1659.3966090436	143.196039416324	2924.89186746873	1953.89728400835	159.814932899984	3220.16263888363	1390.33019764878	132.815360615045	2765.76800328739	1323.29828216648	148.855285900085	2153.49379460495	733.334272230393	130.373648157753	1315.63625922588	945.509104039797	147.992695301956	1268.67947266314	901.680020982896	143.927093271276	1631.65508569172	635.888077400714	162.200863391861	780.223992853942	1073.81703967856	154.938843073884	1726.64450827476	557.888660836752	148.90331404932	646.823402623155	1151.30290706461	144.101082211157	2179.30053182794	1335.8431127702	137.448401517615	2312.81596929638	997.383299842125	143.982272722244	2112.94711813813	1036.90273725387	147.917596325812	1620.85011094575
406.888083872705	142.988250197392	761.259232688049	1347.33841147693	179.243953238539	2103.32927144593	1660.10658585351	143.206829526153	2926.68614921152	1954.73494087568	159.880392344938	3221.69651154021	1391.97087971862	132.810972220655	2771.77330882223	1324.77635451002	148.911792573951	2157.15048742824	734.573966265589	130.396194603872	1320.04825465659	947.103738122469	147.992695301956	1272.0684887114	902.723186673558	143.954626296559	1635.2983780368	637.005925107641	162.214979589957	782.210749692905	1075.35837218152	154.95927654881	1730.4935276799	558.582306573597	148.942876493951	647.85615707457	1152.4794571188	144.113897378801	2181.57289394238	1336.37063339095	137.445589309527	2313.13163668894	997.684056808198	143.994022524852	2113.15260270372	1037.4419338604	147.898917788843	1621.41229717377
406.977794944711	142.995349747749	761.227030493118	1348.17163866472	179.288863770339	2104.70769362766	1660.4620180567	143.227789416576	2926.9631558662	1955.16470245082	159.929519851706	3221.59593308288	1393.02824469841	132.794229305201	2775.5993121211	1325.73184672319	148.940766222532	2159.42049946711	735.366951990978	130.424876287434	1323.07419885816	948.116638265603	147.983599945141	1274.24892942332	903.36571989623	143.974893555147	1637.66353826815	637.75010454618	162.214979589957	783.458128944626	1076.38211581037	154.976220778044	1732.81739685904	559.02217401363	148.970243302896	648.366166221881	1153.10235584766	144.118459717673	2182.2939671157	1336.39049014887	137.432255454531	2312.02050268759	997.713019371331	143.997345554206	2112.45350298986	1037.60566002069	147.884775398303	1621.01255837037
406.968816756173	142.998672777103	760.756510226303	1348.34404700623	179.313433547765	2104.02635598165	1660.45034008109	143.25904400095	2925.52183043065	1955.16907436292	159.963143752539	3219.60266426926	1393.42633754335	132.770619220554	2776.93518526373	1326.09852826429	148.942093445429	2160.03528950247	735.643995644613	130.454114365555	1324.44994847858	948.486010678734	147.964470975436	1275.03892885234	903.51827810119	143.988250197392	1638.46529982146	638.059180442866	162.200863391861	783.861730961818	1076.77614265081	154.988250197392	1733.31511680687	559.171737319797	148.985595751598	648.293444459735	1153.11779463305	144.113897378801	2181.2336776869	1335.91054051146	137.41435919109	2309.47033561074	997.459827520795	143.994022524852	2110.75027205076	1037.39345035072	147.876890030076	1619.61680951858
406.868020799241	143	759.86456640534	1347.90324131765	179.316061801114	2101.34780922513	1660.11236212948	143.298443288156	2922.43395262858	1954.78758827688	159.982272722244	3215.73474298781	1393.16682196021	132.744035100992	2775.77556445768	1325.88261795268	148.917770049098	2158.93377721299	735.396978616859	130.477355241396	1324.11955474188	948.224535784944	147.935497326854	1274.43210017987	903.153049720506	143.995349747749	1637.61608939366	637.921720489396	162.176381527814	783.422867989656	1076.51181969908	154.995349747749	1731.92456696909	559.031552162609	148.990699495499	647.652048608523	1152.56870149248	144.101082211157	2178.41874593635	1335.02476820969	137.39660168871	2305.67684654681	996.969009199167	143.982272722244	2108.1067069681	1036.86867600683	147.874352818591	1617.33998447314
406.696966077057	143	758.638675128768	1346.97660206776	179.297383264146	2097.01561267964	1659.53914947439	143.340639189219	2918.04675118154	1954.11246687627	159.989372272602	3210.30190117228	1392.34636895675	132.718762798939	2772.46082217653	1325.17613506876	148.873013177841	2156.30162701265	734.693264230449	130.491759130659	1322.27172611677	947.433699592637	147.898119622694	1272.6210558653	902.319543469899	144	1635.27809273512	637.38870590586	162.147783137494	782.267119000717	1075.66396273873	155	1728.87255438791	558.647574524803	148.986922974495	646.54066620942	1151.59264149439	144.082403674188	2174.15087551629	1333.89913627174	137.381114023288	2301.01658909173	996.332693462143	143.959820723185	2104.74274457439	1036.14463930055	147.875138566887	1614.42418445686
406.48833128485	143	757.22408966849	1345.74988609901	179.262020317978	2091.6152748568	1658.84952892917	143.379263443808	2912.9395512048	1953.2693087766	159.986922974495	3203.86969699274	1391.15857477083	132.695929007936	2767.67707682552	1324.15587542929	148.815715948506	2152.57495458474	733.67610168899	130.497259659575	1319.34439462566	946.301511215109	147.856439399695	1269.99412862992	901.15193903453	144.004650252251	1631.86772351685	636.57736684098	162.122582951003	780.639778651429	1074.41113132137	155.004650252251	1724.66914050698	558.1113349357	148.976220778044	645.137272024593	1150.40109537313	144.061156926116	2168.98799914344	1332.74281648595	137.367050139293	2296.0069143729	995.674994342057	143.922420301349	2101.01739864919	1035.36703510189	147.876872874622	1611.2047826528
406.278259067403	143	755.795688524893	1344.43621164805	179.215777756107	2085.86563559986	1658.17042690498	143.406346036355	2907.80840694607	1952.389781445	159.976220778044	3197.14774336065	1389.86499343214	132.677162557589	2762.34895634591	1323.0575334409	148.755357188539	2148.37078145069	732.547509821908	130.496762865278	1315.95630640676	945.077694539992	147.816514114655	1267.07366379358	899.856050575621	144.011749802608	1628.01107160694	635.660949862714	162.108435753289	778.87517941275	1073.01813851972	155.011749802608	1720.04604693413	557.54769698952	148.95927654881	643.679319281934	1149.23955759561	144.04072345119	2163.65572662346	1331.76527529529	137.35118374084	2291.21425329121	995.124520679355	143.86836292559	2097.36496244522	1034.67978602496	147.876358924871	1608.04816413281
406.101555598783	143	754.525740057687	1343.24285788299	179.1669121072	2080.49346836072	1657.61472593145	143.415930895197	2903.33919090774	1951.59513782228	159.95927654881	3190.85980979097	1388.74856576796	132.66243745904	2757.48532227563	1322.13185021398	148.702616735854	2144.37636032962	731.529976691419	130.495163843836	1312.80136711977	944.027589666595	147.785020410043	1264.42322120648	898.667161488088	144.023779221956	1624.41281767413	634.834815708845	162.109876376587	777.326648734344	1071.77949711807	155.023779221956	1715.80934755623	557.089651400803	148.938843073884	642.413078128379	1148.3408738613	144.023779221956	2158.90455054579	1331.13669224726	137.330375077225	2287.14628058789	994.790037061694	143.799315893647	2094.2092123657	1034.19893753456	147.872222622371	1605.27947397926
405.983223418781	143	753.548452821222	1342.33566301357	179.122582951003	2076.09148468805	1657.26614230626	143.405682259969	2900.06570746521	1950.97690618494	159.938843073884	3185.59734435725	1388.05176544652	132.649448346913	2753.9677600482	1321.59298446252	148.665233469473	2141.20430214422	730.823368652996	130.494215284398	1310.5028850541	943.376536337403	147.767642903526	1262.52249115987	897.805759479032	144.04072345119	1621.715150156	634.276968842218	162.126986822159	776.292214770901	1070.96109581372	155.04072345119	1712.67896470986	556.851356232298	148.917596325812	641.541975718522	1147.86923106921	144.011749802608	2155.35634355655	1330.94224835939	137.303355932119	2284.14082081259	994.731011576416	143.719828163974	2091.8708315391	1033.98249208037	147.863388764279	1603.11218022106
405.936923873578	143	752.933881503289	1341.81003899245	179.089306783583	2072.99800810519	1657.16579874354	143.377332833053	2898.25806154797	1950.58614675063	159.917596325812	3181.69942761489	1387.91840562793	132.637245138635	2752.35480046966	1321.56584180219	148.649095272475	2139.25465038102	730.556009333633	130.493412380647	1309.47206456195	943.253973231898	147.766315680629	1261.65664324991	897.418724493472	144.061156926116	1620.34609513824	634.100608889949	162.155310402913	775.93798435909	1070.7342527414	155.061156926116	1711.12472822022	556.89579282896	148.898917788843	641.176240136937	1147.89115209388	144.004650252251	2153.36432236723	1331.17230196329	137.269565884521	2282.2924805128	994.948023665493	143.638114062708	2090.494884105	1034.02364966056	147.849246373738	1601.60319489006
405.959369235151	142.998672777103	752.670965319011	1341.67206202896	179.069152925397	2071.22667425976	1657.30423243388	143.337822360995	2897.85998107409	1950.42531253882	159.897590565946	3179.18150080417	1388.34938184	132.623449994272	2752.72157780559	1322.05142529818	148.653483666865	2138.60319359491	730.749908061543	130.488860341597	1309.79580644367	943.654941360393	147.779042934895	1261.82842889563	897.539478111131	144.082403674188	1620.39901311449	634.320093312809	162.188136137596	776.242839780436	1071.12750601535	155.082403674188	1711.23821313417	557.212866185105	148.8861026212	641.293394267587	1148.35828794714	144.001327222897	2152.93156693769	1331.72091841175	137.23315730045	2281.42805669262	995.383201133251	143.563353092167	2090.01482653825	1034.25225346019	147.830189103739	1600.64126481036
406.032837945021	142.995349747749	752.672004659175	1341.83160678402	179.059852420895	2070.45836061448	1657.61855113197	143.296332750699	2898.50023531557	1950.44551054401	159.880125146052	3177.7381374545	1389.19021530827	132.607929650544	2754.61014737688	1322.91955769594	148.674187261648	2138.96724536536	731.308238130631	130.476028018499	1311.19866778352	944.432134905048	147.798786836899	1262.73889162366	898.068190513796	144.101082211157	1621.59279494336	634.835194281566	162.216306812854	776.988404016285	1072.00632837391	155.101082211157	1712.69567882687	557.715252884929	148.881540282327	641.735492451046	1149.11868235645	144	2153.69369921361	1332.4075060307	137.197768161837	2281.12188753334	995.930327612256	143.505534672171	2090.15237007571	1034.54919523374	147.805891194431	1599.95869186418
406.126240407387	142.988250197392	752.783939745639	1342.1123726168	179.055179450969	2070.09456447769	1657.99503227456	143.262270834983	2899.54897600426	1950.54371948166	159.865140227468	3176.79080799447	1390.1511588197	132.588724698079	2757.1098171491	1323.92664127745	148.701556711844	2139.76188196008	732.027688488708	130.451035679469	1313.08860504743	945.314230236666	147.814932899984	1263.84197204901	898.786509630045	144.112570155904	1623.328857811	635.446694955165	162.231029873577	777.800268276919	1073.09688178512	155.112570155904	1714.82488633039	558.253241077804	148.884775398303	642.240500705528	1149.95067654535	144	2155.00159227081	1333.01823717589	137.168500828819	2280.79176785074	996.459448767234	143.471325004417	2090.48000205602	1034.7740072975	147.775007614943	1599.19274047385
406.201993111962	142.974893555147	752.8184769565	1342.28334012447	179.045547426727	2069.38225393365	1658.2820501742	143.241407557543	2900.24755715002	1950.57751233816	159.849246373738	3175.61272141329	1390.86380871504	132.567656632091	2759.03383083181	1324.76522938139	148.724802325286	2140.22157659501	732.637835884907	130.412323511502	1314.67743687775	945.962006973556	147.815889671792	1264.45593995192	899.403865696589	144.113809465422	1624.80828703979	635.899920105177	162.226379621326	778.223038773936	1074.04439659195	155.113809465422	1716.73924387597	558.648477011789	148.892940313696	642.499031072974	1150.61305226053	144	2156.06413767724	1333.35068605007	137.147420297086	2279.8157804957	996.843945032135	143.463857923941	2090.50837196176	1034.79259946061	147.734284163753	1597.95823723316
406.221455566914	142.953299073663	752.593337678216	1342.10242775132	179.020179483152	2067.57735234843	1658.31709999078	143.234474223525	2899.86979788228	1950.38662644613	159.82843764055	3173.49186877541	1390.95700507686	132.545175381674	2759.17594444248	1325.12639898837	148.733485997604	2139.56696184897	732.857317364123	130.363213160188	1315.15294095739	946.039691259935	147.792110449836	1263.91206072558	899.621335476725	144.102147576192	1625.21907669922	635.939633934992	162.198579535098	777.826107756814	1074.48897906371	155.102147576192	1717.54336729721	558.734517620306	148.901196270953	642.230243526075	1150.89983318767	144	2156.13938763133	1333.26058614651	137.134876927986	2277.69037025602	996.988698015558	143.480949417978	2089.80772418214	1034.50887358008	147.681558818065	1595.94319028042
406.155503695422	142.922443019025	751.962333877593	1341.37480670767	178.970510501783	2064.09462933447	1657.96577103272	143.23728636204	2897.85650610588	1949.83593747612	159.799315893647	3169.86588197904	1390.1383342848	132.523173815352	2756.57416509411	1324.76650259072	148.720001887261	2137.1771871036	732.45587667135	130.309145484607	1313.85569734018	945.289216225555	147.738680424229	1261.70568898429	899.194809038896	144.075975766304	1623.91204636788	635.37004890233	162.146629637884	776.302794227867	1074.14475897986	155.077302989201	1716.52239615427	558.39334338817	148.901986826423	641.246479319371	1150.6823255724	144	2154.68873941276	1332.68846857843	137.129511685363	2274.13278426731	996.846802526288	143.517551673665	2088.09153477825	1033.88066220161	147.615026279931	1592.9712052475
405.988741843569	142.882067301247	750.85214167923	1340.00022070385	178.892669166467	2058.64873696734	1657.15801424348	143.244736287061	2893.95180005251	1948.85299031351	159.759753449015	3164.46754604905	1388.26559723377	132.501839153902	2750.7333021678	1323.56463165818	148.682616942191	2132.73250673581	731.306538936411	130.257190780219	1310.43314794973	943.592761398475	147.656727182778	1257.61425677218	897.997674040004	144.037029970748	1620.54640837861	634.105628516511	162.074407674908	773.541922887393	1072.86831187447	155.041680222998	1713.29675659577	557.587067175262	148.890123623414	639.498482626061	1149.93515635196	144	2151.50678064154	1331.66703479026	137.126974404306	2269.16148741486	996.426664294784	143.563880111087	2085.29123796193	1032.92546062135	147.53545063688	1589.04682351291
405.726980254967	142.834415115697	749.279889094874	1338.00853751738	178.788351839334	2051.32736429188	1655.91693019996	143.251411597126	2888.26846319545	1947.45951905251	159.711287990319	3157.39504121463	1385.39328725764	132.482558957389	2741.74838298535	1321.5628571963	148.625321391544	2126.29298117139	729.422678849465	130.214040748598	1304.92461334283	941.013073665247	147.554579606586	1251.75742336935	896.048795973423	143.988250197392	1615.16917134189	632.19184967198	161.988250197392	769.659925708678	1070.69195476299	155	1707.90376206688	556.366247318108	148.86259059813	637.087969620098	1148.74164524751	144	2146.75335827418	1330.31563170952	137.123109969924	2263.08399001755	995.79000529286	143.60942273064	2081.56011376589	1031.71530433569	147.446397845072	1584.34569614637
405.393798067597	142.784222243893	747.352790858953	1335.5607623789	178.664962322244	2042.58262440214	1654.35841583336	143.253407403583	2881.27206659945	1945.772675893	159.659360810781	3149.09843879246	1381.76870902949	132.464011017004	2730.32855734467	1318.96078147002	148.558164493801	2118.31424926528	726.958718208835	130.183312162058	1297.77358737614	937.786546149041	147.444093170517	1244.5940369814	893.515869407388	143.934540555045	1608.22395314721	629.805634171345	161.897162850885	764.99058563013	1067.82280442729	154.958319777002	1700.80400729325	554.864956972817	148.820910375131	634.255039381903	1147.27395319094	144	2140.91503394059	1328.80760293882	137.115224601697	2256.43017520741	995.03370828443	143.645239238031	2077.23510591054	1030.35653228252	147.353716214724	1579.1708343545
405.029349612266	142.737979682022	745.248761099675	1332.93014180538	178.53492361796	2033.15105958707	1652.68409911321	143.251835837418	2873.69094549419	1943.99941189551	159.612332500614	3140.29488627235	1377.79822089324	132.445858408298	2717.64928541612	1316.08910318771	148.493764585622	2109.55229367169	724.18797784145	130.16715368112	1289.74133749047	934.286919929404	147.339949787868	1236.83184719811	890.685844975168	143.88197355961	1600.46642501744	627.220552477405	161.811319688029	760.021927621828	1064.60204026125	154.922697010799	1692.78596456465	553.274330236424	148.771140411214	631.327016968692	1145.75619515866	144	2134.69989296254	1327.33753182423	137.102409434054	2249.84448512191	994.267709228935	143.665246676585	2072.76238341775	1028.96382707779	147.26438861335	1573.88656459614
404.680780917663	142.702616735854	743.184094142846	1330.44921545709	178.413136133332	2023.91994246279	1651.1371538356	143.249315781388	2866.3846489918	1942.39184086656	159.579506765931	3131.83522248397	1373.9689605096	132.429265040962	2705.15007477216	1313.33859798803	148.445158756749	2100.92664294105	721.452828751078	130.165943692532	1281.77202245478	930.955783152868	147.25554724831	1229.30524182997	887.909736951296	143.835368274794	1592.82911604036	624.757391696126	161.740263538785	755.309088344581	1061.44422725776	154.897852423808	1684.82322815189	551.804920374359	148.72253626103	628.658516883693	1144.42388679113	144	2128.88894514644	1326.08900215681	137.088381149336	2243.95498790114	993.598094946928	143.668716125572	2068.60048989717	1027.64395598289	147.185067100016	1568.84210672995
404.396760933247	142.683938198886	741.372124650759	1328.45265279396	178.313214928734	2015.75845528027	1649.96374446939	143.251418452758	2860.16807537912	1941.20508720639	159.568713597189	3124.52955963509	1370.76145430449	132.415350087072	2694.24602499905	1311.09219879404	148.420590658012	2093.3388367306	719.100413342759	130.178325582894	1274.80918941909	928.222286220925	147.201837605963	1222.81458609855	885.53634235293	143.799136608139	1586.24867159093	622.720759213548	161.691216704486	751.374292677161	1058.75189282403	154.887517757474	1677.89142623833	550.647335817619	148.685239229338	626.564078291629	1143.47387603376	144	2124.17893156499	1325.19288577647	137.078884203872	2239.25235511842	993.097259018546	143.659098952919	2065.12012141966	1026.46641822948	147.119607655062	1564.30073178879
404.215268154585	142.685239229338	739.985907026316	1327.20906820633	178.246050302846	2009.36996580263	1649.35700687289	143.26184103247	2855.67198972163	1940.64071639652	159.584157018181	3119.00942539084	1368.56180130591	132.40714150273	2686.09328647304	1309.64718797282	148.42488593594	2087.51425283258	717.42078760286	130.203745636985	1269.63653973942	926.425777495831	147.183566153833	1217.9964676484	883.85060128976	143.774597830332	1581.49869359556	621.347793750016	161.667887915267	748.615740747986	1056.85301069167	154.893407319244	1672.79343192448	549.936588196078	148.66656069237	625.260831330943	1143.03665131819	144	2121.06751472598	1324.71622369186	137.080902728005	2236.01909254695	992.800334587075	143.642411068951	2062.54502733536	1025.46000883552	147.070480148294	1560.40792873878
404.160348454078	142.70648597741	739.133281957133	1326.87651956628	178.21788992741	2005.19531613798	1649.42230846634	143.283517583055	2853.25266905868	1940.81056311289	159.624082303222	3115.6368374089	1367.59888253049	132.407430456729	2681.39554352823	1309.16900074345	148.455977362889	2083.88019878505	716.599305115698	130.241059824131	1266.74933333299	925.764290256215	147.201489872551	1215.22402201145	883.032015157924	143.761241188087	1579.06861114155	620.772256679651	161.671123031242	747.249859965591	1055.95061146555	154.915317843702	1670.0369230338	549.733915157947	148.671123031242	624.837684987045	1143.15536639245	144	2119.77204607443	1324.65287545835	137.10003169771	2234.28888325388	992.697452074909	143.624942520571	2060.91172513708	1024.60925291085	147.036856247461	1557.17171174509
404.235915039194	142.742969735956	738.843287184497	1327.47738778861	178.228141691124	2003.36210936989	1650.15468308444	143.315011287667	2852.94865619428	1941.70989787844	159.68181280984	3114.46382504503	1367.91447379894	132.417410421899	2680.33771674063	1309.6687596537	148.507904542427	2082.52678951769	716.691128476983	130.287898736535	1266.29996939485	926.269653549274	147.250446563322	1214.57632673055	883.132198212894	143.758413156949	1579.10240965693	621.013620816163	161.698054396982	747.293334274309	1056.1033980778	154.953125350376	1669.77805685793	550.024566483883	148.698054396982	625.255070990066	1143.78999572585	144	2120.22336081091	1324.93252615392	137.13740940187	2233.87308733233	992.740814795375	143.6113450794	2060.08356114294	1023.863575132	147.016400054859	1554.48925928802
404.428359454315	142.786757417551	739.073702036234	1328.91142546662	178.270361281324	2003.73048446381	1651.44804403094	143.350637528638	2854.53264028384	1943.23372126907	159.747361189258	3115.28807672995	1369.37586624487	132.434385581178	2682.64412722529	1311.01800847982	148.572306884342	2083.25033800004	717.62444129041	130.338904881485	1268.12687570722	927.821266383169	147.320558960301	1215.87608910727	884.079074274948	143.763788768967	1581.41153983018	621.986930545967	161.742542020895	748.586158998892	1057.23323186144	155.00334574703	1671.83755290296	550.732005709493	148.742542020895	626.36807836587	1144.83431976806	144.001327222897	2122.1187511251	1325.44376882609	137.190261526642	2234.42626658081	992.858117572807	143.602602193599	2059.79526093842	1023.15649959902	147.007304698044	1552.18929508375
404.71105425366	142.828289542228	739.729907267939	1330.99703387755	178.333827689168	2005.97207441806	1653.12889269341	143.381895171926	2857.59550556546	1945.21082361353	159.809160572523	3117.73734140888	1371.72083681682	132.452688929457	2687.69075764716	1312.99010967851	148.640399785728	2085.63035006195	719.230339095808	130.38688175109	1271.82397896306	930.186511162435	147.401285999492	1218.75975125518	885.709778860879	143.775790663465	1585.57101478551	623.536900585759	161.797037411537	750.856952246991	1059.16331551797	155.061156926116	1675.80941787015	551.742473747625	148.797037411537	627.97829588945	1146.14272248562	144.004650252251	2125.0253982177	1326.0585330317	137.250620286609	2235.5475878017	992.966421105788	143.597236950976	2059.73322199774	1022.42230698211	147.007304698044	1550.09598978065
405.05225619902	142.857940345879	740.690654666987	1333.5226256872	178.407895562393	2009.6741537104	1654.99988284726	143.399792698199	2861.65702357255	1947.45043659773	159.857940345879	3121.38038304337	1374.6217590361	132.465081119641	2694.70217538442	1315.31447848695	148.70488280011	2089.15944133123	721.284763973375	130.423030445554	1276.86568870272	933.076204028406	147.48176079124	1222.78533504893	887.804393533229	143.792734892699	1591.02367144197	625.47312272797	161.853093652666	753.788823438572	1061.65815833173	155.119781378348	1681.16402649461	552.930476058133	148.853093652666	629.879558621848	1147.56831317418	144.011749802608	2128.48448767383	1326.66516193202	137.309133066754	2236.87269736794	992.993734784845	143.593553632414	2059.60480885491	1021.62120630577	147.016400054859	1548.08014733813
405.419628209547	142.869667430811	741.834962434113	1336.29497244235	178.483327154322	2014.4465518641	1656.88146147339	143.398465475302	2866.27823598713	1949.78610293798	159.888796400517	3125.8329503412	1377.7532137666	132.464278215891	2702.90072260247	1317.73253632706	148.760181164076	2093.340445271	723.557936424021	130.439171771038	1282.71536989254	936.204672897107	147.554129173849	1227.51945365141	890.13238862221	143.813195892475	1597.20595144727	627.607881755702	161.90331404932	757.090593920399	1064.47167270498	155.171736082737	1687.37553353684	554.182408119697	148.90331404932	631.896606008959	1148.97937879973	144.023779221956	2132.10147274072	1327.17367022639	137.357218529586	2238.12975651665	992.883053279715	143.590179389074	2059.18988271285	1020.74024219384	147.035529024564	1546.08799204933
405.788351839334	142.86259059813	743.063422158099	1339.17057877482	178.557480433475	2019.98001029792	1658.64538243608	143.375917696778	2871.13311951581	1952.10515427122	159.901986826423	3130.81867052308	1380.85064100791	132.447712650115	2711.65094859507	1320.04674376884	148.805199893195	2097.7840310859	725.856328636086	130.429985372359	1288.92447933165	939.336794363075	147.613725249479	1232.6156543815	892.490043783386	143.836166578886	1603.64205975375	629.784870246876	161.942876493951	760.538961066066	1067.38778240462	155.210329337707	1694.00620319966	555.410684647601	148.942876493951	633.908640518417	1150.28647746429	144.04072345119	2135.59604452076	1327.53537989139	137.386977926464	2239.15900817836	992.605390600404	143.588017366278	2058.36630276857	1019.80289392523	147.064502673146	1544.13815012568
406.139330502061	142.840039344837	744.303146698147	1342.05869136023	178.632230063161	2026.05623382076	1660.2138239918	143.33423747378	2876.02010744947	1954.34039765385	159.901196270953	3136.17008334464	1383.73962958492	132.415646540856	2720.50033287645	1322.1401127951	148.840033782615	2102.23292616157	728.04501589635	130.394596233746	1295.17363485138	942.313243951365	147.660312069993	1237.83469199938	894.728220284151	143.860996176347	1609.99622670024	631.896286780391	161.971570525793	763.995759755384	1070.24702926343	155.231029873577	1700.74790100251	556.562893883112	148.970243302896	635.850156714394	1151.44516296635	144.061156926116	2138.81740883099	1327.73629329446	137.395923456643	2239.89974217645	992.159598411641	143.58898655594	2057.10710338953	1018.85851028797	147.103207600203	1542.30217599522
406.45915539587	142.810536639507	745.501459448971	1344.90086107566	178.71367696554	2032.50631808115	1661.54997974019	143.280809486	2880.82029429405	1956.45602419014	159.892940313696	3141.77302829124	1386.33566710656	132.374962962797	2729.17073483202	1323.97124686509	148.868375343444	2106.55548105605	730.05283031784	130.338106715335	1301.27379308662	945.050833848998	147.696473182311	1243.03507089602	896.759386815961	143.887167986235	1616.07054989418	633.879793885741	161.991573226746	767.389693632101	1072.95005252015	155.232357096474	1707.40770813428	557.615883467191	148.986922974495	637.694635852104	1152.44937871087	144.083730897085	2141.71437437296	1327.78874503568	137.385764413481	2240.34080837612	991.564541261366	143.597407766973	2055.45046584496	1017.96880667049	147.149538075452	1540.6606661093
406.736006971889	142.783693187146	746.612572997145	1347.64188173741	178.807472409102	2039.14504029425	1662.63299548906	143.22366516216	2885.42758602606	1958.41681189669	159.884775398303	3147.49387910962	1388.62058220936	132.33425192946	2737.47536454748	1325.54959882166	148.892940313696	2110.68221992318	731.858399131176	130.269749256314	1307.11360876996	947.518639780859	147.726569681097	1248.12051343117	898.546605562885	143.912946073561	1621.76459684902	635.704405443822	162.007099550358	770.680757782467	1075.44382206503	155.214979589957	1713.85954029956	558.564046563347	148.995349747749	639.430199405603	1153.31762975776	144.105732463407	2144.28763820732	1327.71991907108	137.363452300374	2240.48164332759	990.856671285262	143.616889277265	2053.46983915796	1017.19336427824	147.201213163101	1539.2699624307
406.955304198312	142.76631568063	747.578998458796	1350.19661802146	178.915648608395	2045.6998101666	1663.43182459742	143.171710457772	2889.6713419926	1960.1624375302	159.881540282327	3153.10102620725	1390.59903883326	132.303891706556	2745.21551120938	1326.89729358375	148.916269102915	2114.53325054263	733.460501400146	130.200684106353	1312.59195104687	949.702439163295	147.753936490042	1252.98014753115	900.081053014926	143.937515850987	1627.00147256267	637.348979453823	162.022451999059	773.810719081172	1077.69562470716	155.184813108242	1719.96563073625	559.405111448881	148.998672777103	641.027718365704	1154.06830641621	144.125647181409	2146.53561205726	1327.5527015905	137.33836070711	2240.29864652411	990.07512594234	143.648833414614	2051.24223046947	1016.57284181102	147.255158866772	1538.13731089295
407.099013084506	142.762992651276	748.329027345801	1352.43831871549	179.035281888422	2051.78793645355	1663.89707369586	143.13163707441	2893.29134400538	1961.603021861	159.8861026212	3158.25046773734	1392.25579359636	132.290270506676	2752.09865901158	1328.00981225126	148.938843073884	2117.95409248392	734.848082107993	130.142059654121	1317.55293150508	951.567563953453	147.780082107486	1257.43593623279	901.35565212412	143.95927654881	1631.66601404204	638.778346463957	162.04072345119	776.669497675234	1079.66318293183	155.148210852555	1725.52004798817	560.12617830527	149	642.423508418308	1154.70374010318	144.142238939629	2148.40743101902	1327.29754610369	137.320371792689	2239.72632786955	989.256466170185	143.690661785559	2048.82515846008	1016.12049402538	147.308609572228	1537.20656764776
407.145356628924	142.773270607435	748.77073277982	1354.20101330648	179.156134194028	2056.91960854328	1663.95823412591	143.106553347233	2895.93128563617	1962.62168632167	159.898917788843	3162.487330837	1393.52418969801	132.29659460856	2757.70119046225	1328.83623005347	148.957949325913	2120.69214250558	735.976534503593	130.101358920607	1321.74937526769	953.035606855117	147.802568165077	1261.22204166858	902.340082583432	143.976220778044	1635.56157514876	639.931432153996	162.061156926116	779.082281601447	1081.27590817874	155.113630179914	1730.22196408078	560.696023877632	149	643.515039800891	1155.19548033639	144.15462082999	2149.77512240647	1326.94318204473	137.315809453817	2238.652766566	988.424880977143	143.736302687886	2046.23857836421	1015.81488323781	147.358016695736	1536.3616520307
407.072951432098	142.792734892699	748.810843962151	1355.30801557325	179.263757325486	2060.57059331078	1663.54130718	143.09668595068	2897.20248996392	1963.10365380988	159.917596325812	3165.32293363287	1394.28883458618	132.320988762815	2761.50974145446	1329.28267167303	148.971570525793	2122.42467030179	736.763724343208	130.080902728005	1324.85645391348	953.985290613037	147.815360615045	1264.00825460047	902.976791114917	143.986922974495	1638.41876889674	640.722769381559	162.082403674188	780.832325589183	1082.43286799147	155.088281895102	1733.70180284609	561.070986366854	149	644.178157100583	1155.49112922626	144.162239137273	2150.45542610532	1326.46586393983	137.326872762363	2236.95938819442	987.596040133555	143.774209448794	2043.48309456026	1015.61143257817	147.400590864349	1535.45820722525
406.866215381544	142.815715948506	748.37348469891	1355.61783386597	179.344129086228	2062.28698965913	1662.59993300541	143.098803729047	2896.77361414625	1962.97188820681	159.938843073884	3166.33851681635	1394.40736971999	132.356615003786	2763.01542307308	1329.2343034352	148.976500394784	2122.82571678603	737.103315589738	130.078884203872	1326.52586458367	954.276530811727	147.811587152954	1265.45936603221	903.185182562289	143.989372272602	1639.93648368124	641.056016699822	162.09975498826	781.70036289067	1083.01540672089	155.076252475754	1735.58713908112	561.203205655752	149	644.296798826654	1155.52591365352	144.164807348377	2150.25552004743	1325.84243739357	137.349424015656	2234.56850394101	986.778870445596	143.792110449836	2040.56457439374	1015.45395321711	147.432778949057	1534.36529256106
406.523149611894	142.836962696578	747.418094376783	1355.06422690692	179.385381594165	2061.78038686455	1661.13391406854	143.108386909201	2894.44281854749	1962.21069888344	159.95927654881	3165.26324468639	1393.75687718845	132.394972197431	2761.83858814774	1328.5952150909	148.971570525793	2121.64685792686	736.895046108844	130.089708372233	1326.46781150862	953.791265131262	147.785033617155	1265.3133682784	902.88598464255	143.982272722244	1639.873287959	640.852739612691	162.10924712655	781.533827582499	1082.92145613937	155.077556980975	1735.6084976431	561.056825286305	149	643.806880407018	1155.24965413462	144.162239137273	2149.03932055932	1325.07019232808	137.377594690914	2231.49461752068	985.985472324043	143.780360647228	2037.51992915114	1015.29910456784	147.452693667058	1533.0106647812
406.058413456318	142.853093652666	745.962589743113	1353.69335961132	179.382834013285	2059.02904908559	1659.21356308902	143.119874853948	2890.22583509582	1960.89216503823	159.976220778044	3162.07261999222	1392.28118997405	132.429549395303	2757.8620320897	1327.32770755963	148.957949325913	2118.80658565463	736.080382258839	130.107059686304	1324.54357659518	952.478192242819	147.733485997604	1263.46554635688	902.031688502927	143.963143752539	1638.11587186766	640.078295953665	162.105382692168	780.290260520078	1082.09675048051	155.088381149336	1733.67435462583	560.621622835677	149	642.713884181709	1154.64508073391	144.15462082999	2146.80478568961	1324.17682468097	137.405246678821	2227.89736391023	985.234613119312	143.734030171979	2034.45651313864	1015.1250151109	147.459098906892	1531.4280214333
405.505961138663	142.863388764279	744.094327727377	1351.6772085433	179.340388672214	2054.32892073568	1656.98512353941	143.130209520281	2884.40808424287	1959.17780757536	159.988250197392	3157.04306210692	1390.03715869905	132.456916204248	2751.31807671746	1325.48745335483	148.938843073884	2114.44123267147	734.677125666803	130.126974404306	1320.83571776393	950.393056861369	147.659770595392	1260.02391903995	900.635295429601	143.930847074603	1634.74968870248	638.768154910453	162.085467904594	778.072729831475	1080.57331818234	155.102409434054	1729.93609659121	559.922484745516	149	641.112018915845	1153.74823329556	144.142238939629	2143.71246764297	1323.22864988838	137.428484426176	2224.06576564984	984.559062376174	143.655399959881	2031.54473966103	1014.9483921768	147.452807822507	1529.75642066989
404.9171865412	142.869702566341	741.968092966414	1349.29535583863	179.268966207792	2048.27270680243	1654.65547722049	143.137676600757	2877.52469084058	1957.29548203599	159.995349747749	3150.72776370801	1387.20952580578	132.477253899709	2742.81890910967	1323.23677423246	148.917596325812	2108.92831505013	732.794716626656	130.14688919188	1315.68218618936	947.713015732502	147.571259278185	1255.33016525565	898.788841550245	143.886369820086	1630.07974576224	637.035512396403	162.048608957359	775.129152572595	1078.48232199432	155.113897378801	1724.79729089323	559.023519598367	149	639.172408307833	1152.65342459435	144.125647181409	2140.0856728771	1322.32480549385	137.44652531317	2220.38694209456	984.002204112767	143.553252383689	2029.00314154218	1014.82011040881	147.436102733458	1528.22073931622
404.350674939208	142.875562807179	739.78575011411	1346.8944043153	179.184708291787	2041.66754687157	1652.46116667151	143.141805662347	2870.29012301746	1955.50384969758	159.998672777103	3143.88155696055	1384.09196077758	132.492893623722	2733.29972274847	1320.82089110916	148.898917788843	2102.84746100022	730.625947664699	130.166370632599	1309.64996137275	944.719338348089	147.476843340103	1249.92564539339	896.663078977133	143.832660177739	1624.6085986661	635.06380376123	161.997467526116	771.819590497848	1076.05057199818	155.118459717673	1718.86942416195	558.020380968502	149	637.116709662768	1151.50464824996	144.105732463407	2136.35808622224	1321.58296553871	137.462016889236	2217.25908467315	983.616025765102	143.440770141163	2027.05115170195	1014.81512865678	147.413914270948	1527.07671064576
403.867003417174	142.884775398303	737.766004505817	1344.83581274604	179.104588474361	2035.40542339984	1650.63599894932	143.144887823202	2863.48561529143	1954.05385015545	160	3137.33994962906	1381.04792043247	132.507551296419	2723.88135289969	1318.53533984125	148.8861026212	2096.8946171723	728.422128683917	130.187345582126	1303.45562041043	941.75912988261	147.388029688479	1244.46698828315	894.482984500679	143.775790663465	1618.96426742514	633.078891321469	161.938029800738	768.554532501347	1073.56695270766	155.113897378801	1712.88138665973	557.026926869303	149	635.179658975434	1150.47248791033	144.083730897085	2133.00540464379	1321.11893657427	137.477362097028	2215.01536294828	983.449504944003	143.331523014614	2025.86670620368	1015.01529703445	147.393208997477	1526.55126008782
403.513651825278	142.898917788843	736.103033297729	1343.42344858414	179.042304665861	2030.29683841092	1649.36069351494	143.149538075452	2857.80434392653	1953.1335928963	160	3131.85356786498	1378.44240539981	132.523173815352	2715.68651190421	1316.66605396919	148.881540282327	2091.76189120666	726.448013265019	130.211508274714	1297.84610093138	939.181037244183	147.312844477645	1239.6160020619	892.488984211051	143.723863483927	1613.80527544024	631.306830355777	161.878484313917	765.725266251336	1071.32938928934	155.101082211157	1707.56875125165	556.151450007267	149	633.569925775937	1149.7193614487	144.062484149013	2130.44241777641	1321.01489399542	137.495542507294	2213.84329197755	983.535429561414	143.238867576711	2025.53581523477	1015.48365155719	147.381738604094	1526.78032931232
403.318022414762	142.917596325812	734.928779907556	1342.85013931219	179.004476528964	2026.92182106264	1648.73049419123	143.158205717205	2853.72025164127	1952.83740048122	160	3127.94779847347	1376.57171188284	132.540790462053	2709.62523334183	1315.43245063212	148.886102621199	2087.99958878547	724.930540743367	130.241123341145	1293.45832435231	937.270702796519	147.25754611368	1235.90986798972	890.883570121906	143.685239229338	1609.69429460927	629.926987352413	161.827478168967	763.626987576954	1069.58277912912	155.082403674188	1703.53340881903	555.474937689077	149	632.426868005724	1149.36290370752	144.045373703441	2128.9479515232	1321.29655087963	137.5185188255	2213.74381911999	983.877818110353	143.171816351225	2026.02789501963	1016.24372064789	147.387506193953	1527.77512003761
403.281883798924	142.938843073884	734.294402775167	1343.16556634214	178.992099376204	2025.53987093273	1648.74183199756	143.174532848218	2851.42063004437	1953.1546879178	160	3125.84903736115	1375.60288061561	132.559317772215	2706.21471098971	1314.9432248085	148.898917788843	2085.90382593469	724.014308907324	130.277203780994	1290.69420207855	936.191955113753	147.224556803909	1233.65976900505	889.792420812518	143.66656069237	1606.99544681221	629.037652694098	161.790880650881	762.406017805031	1068.46889528297	155.061156926116	1701.14096640249	555.033851593257	149	631.798700713842	1149.4466139696	144.035529024564	2128.59608967212	1321.91762745449	137.544656624749	2214.51549260531	984.442545669868	143.1347032047	2027.18310643068	1017.26405565306	147.414613182864	1529.40176292827
403.380343722934	142.95927654881	734.157899493795	1344.26034993241	179.000783048522	2026.04123614981	1649.28304009892	143.200689668575	2850.76587105864	1953.95904174442	160	3125.43703640028	1375.54058317344	132.576603890584	2705.48884795526	1315.17553137152	148.917596325812	2085.46796753461	723.734677231688	130.31957362654	1289.65154475517	935.956441410831	147.212439471183	1232.89693190158	889.240021187101	143.671123031242	1605.80053863977	628.638948264425	161.770878019502	762.03313733077	1068.00373673558	155.04072345119	1700.44742088424	554.816315167263	149	631.635248797814	1149.92989939614	144.035529024564	2129.24501456688	1322.76718573981	137.572713969179	2215.79606594292	985.162561943217	143.126442647784	2028.7363396498	1018.46291312445	147.462156775187	1531.40617484129
403.56768249427	142.974893555147	734.404182282978	1345.89783842575	179.022921704381	2028.01119138616	1650.16237309479	143.236828063216	2851.35974162048	1955.0465475678	160	3126.31370289565	1376.22566128423	132.591173996186	2706.97412266074	1315.97905021423	148.938843073884	2086.37198406636	724.009840555327	130.365204159471	1290.10087898394	936.423178929057	147.216560804629	1233.36573787772	889.145836430018	143.698054396982	1605.90916956396	628.634330248902	161.764058016311	762.317190365622	1068.0761879101	155.023779221956	1701.19131515115	554.766435189979	149	631.798949535453	1150.69084807125	144.045373703441	2130.56570662223	1323.68484279866	137.597942026803	2217.13000477563	985.941506205601	143.140854403134	2030.36018049826	1019.71730451396	147.523173815352	1533.46276608933
403.788992568169	142.983599945141	734.865691549119	1347.76576032985	179.050734346405	2030.81194929223	1651.14949655165	143.281499058922	2852.62154386697	1956.1780023252	160	3127.8750257396	1377.3702172632	132.59993059235	2709.80571598221	1317.11017325161	148.95927654881	2088.06518204017	724.664336948689	130.408476232575	1291.54821883013	937.332765089988	147.230186811682	1234.59431119872	889.348481398379	143.742542020895	1606.87620480102	628.860593735476	161.763519670196	762.950742077124	1068.48196029675	155.011749802608	1702.85491394646	554.801434427061	149	632.102781853376	1151.56055597111	144.062484149013	2132.11858656069	1324.50657174624	137.615286099965	2218.07185787068	986.680926419575	143.16821661242	2031.73295715692	1020.89846303138	147.584857760389	1535.24434916262
403.99079480139	142.983599945141	735.362516340091	1349.54422310274	179.077753421938	2033.73853764333	1652.02069710238	143.330392232679	2853.92542164419	1957.12965510163	160	3129.45931535896	1378.62239355233	132.600476804552	2712.8968004523	1318.28497813823	148.976220778044	2089.87358066807	725.465753533549	130.442271087347	1293.34058371835	938.366960034732	147.245970034358	1235.99543825529	889.645877958738	143.797037411537	1608.10662988433	629.128057175671	161.761508386973	763.581131331675	1068.97450997271	155.004650252251	1704.76931158736	554.831791363569	149	632.347870059358	1152.35842566939	144.082403674188	2133.45884558027	1325.098766091	137.620671139294	2218.2967267239	987.297355867392	143.197628275886	2032.61342468603	1021.89693747776	147.632947960822	1536.50629817557
404.133531439009	142.974893555147	735.736501630013	1350.97207403883	179.09975498826	2036.15802065366	1652.60727170878	143.379344116276	2854.71971003732	1957.74334993941	160	3130.47470834803	1379.63396014473	132.590911742416	2715.17772499667	1319.23198599246	148.988250197392	2091.15024598698	726.175150893149	130.459622401418	1294.81341392508	939.21498111839	147.257457979105	1237.0024363634	889.841648240909	143.851766429769	1608.99084357325	629.264504963176	161.749886052463	763.88878004276	1069.32250863488	155.001327222897	1706.26327461577	554.783005088936	149	632.369125688847	1152.93070836629	144.101082211157	2134.23862566067	1325.38857061859	137.611091087625	2217.67931512937	987.739702312321	143.21954192883	2032.89647288127	1022.65015890786	147.654601793732	1537.14382745212
404.197946198777	142.95927654881	735.887454001103	1351.90008648592	179.113897378801	2037.64989799203	1652.82691016534	143.421291400219	2854.65757213295	1957.95820776834	160	3130.54497424919	1380.14128805926	132.570196612923	2715.80301828787	1319.75554709419	148.995349747749	2091.39809174877	726.599908819631	130.456566433008	1295.42499947088	939.645083657271	147.26026538002	1237.18469023734	889.787988655836	143.898663797069	1609.04557290685	629.154517200488	161.726129548183	763.661155311579	1069.35737759205	155	1706.81053526124	554.61180038676	149	632.073790679131	1153.18508002249	144.113897378801	2134.27816258615	1325.38101405968	137.586067748977	2216.3203584335	988.000983667511	143.227794757601	2032.63248820678	1023.15552979124	147.642572374384	1537.21552270502
404.187794766294	142.938843073884	735.789918684868	1352.31011053041	179.118459717673	2038.07736230888	1652.69539072561	143.451372006383	2853.65727961135	1957.81620363166	160	3129.57368706481	1380.00982363109	132.537721252903	2714.33249854008	1319.76714248947	148.997345554206	2090.37934123357	726.628423478568	130.431190623346	1294.87518214774	939.544870756365	147.251573979557	1236.34388588653	889.422608655948	143.931126691343	1608.02282364703	628.765629125873	161.691134132133	762.836673236816	1069.01367966597	155	1706.14179981122	554.317230288502	149	631.458785937096	1153.10635029109	144.118459717673	2133.60909056151	1325.15386722493	137.547480056228	2214.53424435195	988.117435834863	143.21954192883	2032.0214645992	1023.46887647477	147.596874761883	1536.93449384854
404.126710112709	142.916269102915	735.501174662798	1352.31456329274	179.113897378801	2037.61342042909	1652.31932918622	143.465488204479	2851.92930694566	1957.45228982119	160	3127.77464006402	1379.2625454969	132.49342268047	2710.82508834453	1319.30284412608	148.995349747749	2088.16530299138	726.254157382789	130.385912561428	1293.16748524759	938.943080912271	147.231291731438	1234.55256085426	888.777488819902	143.94646408094	1605.97713261739	628.151473541783	161.650408039692	761.522566639653	1068.33531879803	155	1704.31323718722	553.941757477654	149	630.616006947491	1152.75397889762	144.113897378801	2132.44531683975	1324.83406197793	137.49807293272	2212.75592126148	988.154155546565	143.196301052989	2031.34921204689	1023.68679344151	147.525028057169	1536.60460165037
404.052057906965	142.894267536593	735.139304578652	1352.11720361371	179.101082211157	2036.67526583675	1651.86618164579	143.461216685259	2849.90923426645	1957.05431903196	160	3125.59865446745	1378.06811240102	132.438644752117	2705.8109007815	1318.51204135881	148.988250197392	2085.11566651665	725.571368591077	130.325812738352	1290.60019309194	937.99572547027	147.20095130524	1232.12968578912	887.970557798858	143.944872300408	1603.25221050018	627.436443140391	161.611432992778	759.967519602203	1067.46329776204	155	1701.69428760913	553.559829819766	148.998672777103	629.713134342981	1152.24666979496	144.101082211157	2131.140979751	1324.56796618837	137.441962974297	2211.45311666311	988.190776394668	143.162239137273	2030.93074695888	1023.92342578203	147.439442918267	1536.55717561479
404.005978723716	142.874352818591	734.858349289339	1351.96378938257	179.083730897085	2035.8255356249	1651.52816486742	143.439729068688	2848.17150832456	1956.82405113372	160	3123.63731349027	1376.70145495118	132.377594690914	2700.19451447329	1317.62195210388	148.976220778044	2081.81391133101	724.753292968772	130.259047059863	1287.70505867908	936.945394982607	147.164893583067	1229.57095916904	887.180063308118	143.929542569382	1600.41107053405	626.785251626862	161.583288094108	758.508593311386	1066.60494924406	155	1698.88606606402	553.26382802613	148.995349747749	628.958025576342	1151.73401856721	144.082403674188	2130.11006160508	1324.4865583458	137.38417555392	2211.02314547531	988.30154561671	143.124454348275	2031.0400871104	1024.28267667457	147.357751534677	1537.07850297975
404.024226279195	142.857761060371	734.809529488108	1352.08107602953	179.067134401264	2035.63342106801	1651.47951820098	143.403913893702	2847.29642153993	1956.92621817649	160	3122.4812975516	1375.48282166384	132.314698719463	2695.05803866551	1316.88873598716	148.95927654881	2078.94096569646	724.0116781375	130.194911778893	1285.12730712187	936.065314894993	147.129104600526	1227.43499099382	886.600301677438	143.904519300307	1598.0978592703	626.363354342086	161.571079992676	757.487864847124	1065.98280251226	155	1696.58205615254	553.140971519516	148.988250197392	628.551636449268	1151.36117016429	144.061156926116	2129.74287471134	1324.67372924656	137.327938127399	2211.7173890722	988.537000469725	143.089586400323	2031.8612789391	1024.83181906713	147.294943476603	1538.35354155207
404.130928687312	142.844051947113	735.10616751021	1352.62159880671	179.058450728946	2036.53980245452	1651.83627607949	143.360820572256	2847.74280685714	1957.45024110143	160	3122.58560980638	1374.70747898598	132.257284255818	2691.43988864615	1316.54221966946	148.938843073884	2077.13601331889	723.550884097118	130.144714099915	1283.48885558285	935.596610464845	147.101336202931	1226.21958661106	886.402571081334	143.875138566887	1596.90466335377	626.300776342366	161.577755302742	757.18343527283	1065.79182692723	155	1695.42246061927	553.255651412987	148.976220778044	628.647334671466	1151.24436333874	144.04072345119	2130.33162396844	1325.15607749529	137.278523762981	2213.59649000769	988.918444228556	143.064223056406	2033.45732065995	1025.5931669986	147.26299453208	1540.43523495703
404.330674741565	142.833110610476	735.801354063571	1353.63236153266	179.065285721668	2038.76523528931	1652.63430790704	143.316766225625	2849.7625486532	1958.39058783768	160	3124.18020212995	1374.57669736197	132.212863711475	2690.13031689037	1316.73200437921	148.917596325812	2076.87126297695	723.519172528522	130.116431752569	1283.25831190657	935.691348023608	147.088002278362	1226.25903723498	886.694834060591	143.84537917001	1597.22511278439	626.662333893689	161.599409135651	757.739993800036	1066.15343446567	155	1695.84017633695	553.634401810665	148.95927654881	629.31417096266	1151.45004682385	144.023779221956	2132.02949875842	1325.89956327025	137.238610526024	2216.54273907351	989.437822898096	143.052208696163	2035.78073177821	1026.54005304664	147.267297050918	1543.25131063389
404.610119435403	142.823442849015	736.877639128092	1355.05313273331	179.09397975351	2042.2774497552	1653.83021947148	143.277463601028	2853.3577080728	1959.65645706156	160	3127.23443562073	1375.168550419	132.187085624149	2691.51797251534	1317.50548704195	148.898917788843	2078.35682268214	723.983262653763	130.116431752569	1284.65843514322	936.388062582151	147.092932147353	1227.65669397732	887.501012254958	143.820383356211	1599.17412849461	627.438590087551	161.631449052466	759.144915166045	1067.09598579661	155	1697.97134116485	554.263526834746	148.938843073884	630.524259102387	1151.98585386185	144.011749802608	2134.81726735068	1326.82248232124	137.210845187342	2220.27885929706	990.061147657549	143.053800476695	2038.67960532368	1027.6091512083	147.305895113062	1546.61931933866
404.943602228875	142.813981640771	738.257162383618	1356.73893648395	179.148037129269	2046.8161821975	1655.31131154087	143.24553445321	2858.29078896319	1961.09154143987	160	3131.47569167055	1376.42370911548	132.182091804075	2695.54053130255	1318.80108131088	148.8861026212	2081.51316999087	724.918505770676	130.143386877018	1287.63677202029	937.608562119919	147.114957402811	1230.27892739275	888.755283976418	143.803698947011	1602.57307761972	628.548108375573	161.666289545141	761.237622294629	1068.547429799	155	1701.64261601936	555.09037375006	148.917596325812	632.163101451682	1152.80715583134	144.004650252251	2138.52522191837	1327.81947995675	137.196127329702	2224.44555642597	990.742505920997	143.065807178367	2041.94704902273	1028.72040693073	147.37144349248	1550.29738892485
405.296173275558	142.80465571882	739.819797098013	1358.50263643245	179.227117774103	2051.97217363213	1656.92306206768	143.220342132806	2864.14294635838	1962.51527952931	160	3136.45781803857	1378.17193013112	132.194911778893	2701.72681814813	1320.46795765526	148.881540282327	2086.00146652439	726.219375921319	130.190261526642	1291.892818562	939.185064277856	147.148210852555	1233.79907542413	890.317354640408	143.797835577687	1607.0048029009	629.858588911976	161.697803879976	763.756169573547	1070.3533451083	155	1706.4210883403	556.03676109856	148.898917788843	634.057204101291	1153.82939909266	144.001327222897	2142.86327511318	1328.78135415828	137.193590118217	2228.65917506819	991.431929579944	143.083730897085	2045.35107529029	1029.79432821842	147.451048097322	1554.02866720172
405.636012191228	142.796604134255	741.43226957368	1360.16723711187	179.326872762363	2057.29335131916	1658.50967717855	143.199885940204	2870.4093924507	1963.76788849012	160	3141.67172401872	1380.18270409642	132.220342132806	2709.32187865833	1322.31007408596	148.886102621199	2091.30895992917	727.733476093229	130.245970034358	1296.95959602435	940.907493022217	147.186140331139	1237.7824264609	892.004479458027	143.803698947011	1611.91042113414	631.217782053848	161.722796219006	766.395971619742	1072.31187551727	155	1711.7174478481	557.015605756828	148.8861026212	636.013350998899	1154.94771825551	144	2147.4850486408	1329.61799514826	137.19988113303	2232.58748318552	992.08590556841	143.101082211157	2048.68059791495	1030.77132283469	147.532127607527	1557.59013240063
405.93769323661	142.791949144403	742.977837354389	1361.60245968947	179.440770141163	2062.38848671474	1659.93803652252	143.181031780064	2876.59871469352	1964.73757373497	160	3146.64980080015	1382.21478125477	132.250508614521	2717.45671610885	1324.12594551774	148.898917788843	2096.86009567227	729.294083081418	130.297383264146	1302.30827643856	942.570050167056	147.219629842208	1241.78647454948	893.626254966399	143.820383356211	1616.71794544148	632.481550377048	161.741499152339	768.879245353359	1074.2110010547	155	1716.92071686436	557.942865734818	148.881540282327	637.857178284575	1156.05384107303	144	2152.03390209444	1330.26763864627	137.211915359552	2235.98692990036	992.671058811122	143.1138973788	2051.76289744393	1031.61742520208	147.601949254426	1560.81898066676
406.187519956728	142.793185325436	744.375306836968	1362.74801556238	179.559229858837	2067.00094376688	1661.11835920651	143.16051039176	2882.31788576503	1965.37825413544	160	3151.05191593701	1384.06976634892	132.277730799914	2725.30256937095	1325.75149502215	148.917596325812	2102.11762770964	730.755745492974	130.33343930763	1307.4463264225	944.016511946481	147.244106899082	1245.44114711351	895.022429695047	143.844051947113	1620.94465206085	633.540068492832	161.755670797777	771.002639009851	1075.86717930551	155	1721.50660402374	558.753128093225	148.886102621199	639.460707944419	1157.05484006865	144	2156.20544236306	1330.70441198411	137.225536559432	2238.73162261248	993.168307318625	143.118459717673	2054.48393453051	1032.32787959225	147.651802120962	1563.63353055013
406.384562758798	142.802371724114	745.59384587591	1363.6166305356	179.673127237637	2071.04763233495	1662.01503270932	143.137676600757	2887.3367305057	1965.70958959862	160	3154.72273222908	1385.61425685489	132.296168468384	2732.21614653991	1327.07853901912	148.938843073884	2106.67893360029	732.014948242843	130.347581698171	1312.00176642178	945.156189475699	147.257463541327	1248.51494880777	896.087898126123	143.870488314637	1624.27232031948	634.332578210212	161.768078880583	772.66442179306	1077.15449081557	155	1725.12057264878	559.4071290512	148.898917788843	640.75711446938	1157.88429421374	144	2159.77176987781	1330.93559498219	137.23753845393	2240.79599343999	993.570405515608	143.1138973788	2056.77730162405	1032.9216016743	147.675833434808	1566.01689974286
406.538970107197	142.820383356211	746.646464850206	1364.27953399368	179.774209448794	2074.59881181797	1662.63890843621	143.112832013765	2891.59317385338	1965.79924079103	160	3157.68085537113	1386.79165700444	132.302033516396	2737.80992441187	1328.06280057924	148.95927654881	2110.32119339472	733.019586344179	130.338089559881	1315.76352774136	945.970775146422	147.260353293398	1250.92995715027	896.782658363442	143.894096720595	1626.57232955847	634.849996253673	161.780199341795	773.863057742596	1078.01799115984	155	1727.61093369588	559.892067182875	148.917596325812	641.738601867276	1158.51116722058	144	2162.61074348343	1330.997051073	137.247564318199	2242.24198869647	993.883879429124	143.101082211157	2058.6266059955	1033.43297027333	147.673671412012	1568.01028035847
406.667162180343	142.844051947113	747.579293025934	1364.84222895191	179.856613122982	2077.83596637236	1663.03971945236	143.087053926439	2895.17695259011	1965.74685731365	160	3160.08748307959	1387.61010305742	132.297645122007	2741.96930515159	1328.71514611948	148.976220778044	2113.00686134396	733.764050654891	130.309133066754	1318.68558144959	946.49649299468	147.256392614069	1252.74549844623	897.12518256673	143.910413599677	1627.88754088561	635.123294790825	161.791953882004	774.67565698487	1078.46916377105	155	1729.01554284848	560.217983123804	148.938843073884	642.441621442155	1158.93760500457	144	2164.6999379042	1330.93884752819	137.256486089669	2243.17976323209	994.121212093368	143.082403674188	2060.04610391178	1033.89980854387	147.648562267385	1569.68384999433
406.78930704689	142.870488314637	748.448821613581	1365.41875488047	179.919097271995	2080.9733973301	1663.29253449326	143.06381137191	2898.26890589024	1965.65812095899	160	3162.16963063219	1388.12164495701	132.285887453312	2744.8267809144	1329.08446759337	148.988250197392	2114.8660530854	734.2783819958	130.268422033417	1320.86320582684	946.803039937512	147.251070719346	1254.12148035869	897.178440194284	143.915898651826	1628.39374543242	635.211810295713	161.803328495923	775.226308871936	1078.57453737421	155	1729.52590475278	560.412148519747	148.95927654881	642.932604710238	1159.19702442604	144	2166.11062354587	1330.81917926696	137.268235892277	2243.73917757132	994.302258387636	143.061156926116	2061.0743224793	1034.35832311824	147.608097545571	1571.11781521762
406.922434619087	142.894096720595	749.305262913161	1366.10471843333	179.964470975436	2084.20220220436	1663.47955549992	143.045373703441	2901.08348239886	1965.62602876234	160.001327222897	3164.15928038663	1388.40505793556	132.272813348777	2746.69143274761	1329.24317209392	148.995349747749	2116.14332783423	734.614104715513	130.225007502684	1322.48937663962	946.972210573195	147.248336291903	1255.26597434526	897.029907619392	143.910413599677	1628.34172831667	635.184969563927	161.813981640771	775.650743233372	1078.43468729266	155	1729.42676928119	560.509127373602	148.976220778044	643.286580831831	1159.34207402371	144	2166.98778708444	1330.68879309077	137.287743595014	2244.0533213075	994.445245688498	143.04072345119	2061.76742056461	1034.83004772311	147.562814746051	1572.3891590025
407.077029962054	142.910413599677	750.174629075923	1366.95962930174	180	2087.63175317589	1663.67219912359	143.036856247461	2903.79866417388	1965.71295390471	160.004650252251	3166.22263811227	1388.54025041252	132.264663422916	2747.96524527471	1329.26530672958	148.998672777103	2117.13670272714	734.828792311625	130.186816525378	1323.79991574116	947.076715911627	147.252634003568	1256.38615923382	896.773650044644	143.894096720595	1628.00666321941	635.110876479887	161.823442849015	776.070247614923	1078.16544082699	155.001327222897	1729.04239448437	560.547790586606	148.989577420289	643.573962258552	1159.43237536957	144	2167.51138394895	1330.58253788788	137.319768404832	2244.22209347576	994.56417374941	143.023779221956	2062.17710350238	1035.32066171988	147.524065457101	1573.54673495562
407.254891667886	142.917225874723	751.054317701771	1367.99792521703	180.035529024564	2091.26929815892	1663.91927846095	143.040179276815	2906.51687505786	1965.94273502151	160.011749802608	3168.43314301192	1388.604896739	132.265715836247	2749.0454655824	1329.22528556178	149	2118.13038727523	734.980917825924	130.159983372839	1325.01877572099	947.175111707155	147.266149113529	1257.6439683847	896.495280389984	143.870488314637	1627.64507410435	635.044175582488	161.833110610476	776.572424744701	1077.8764748197	155.004650252251	1728.68431686447	560.563399887796	149	643.852579987948	1159.52177536452	144	2167.86726034548	1330.51256629779	137.367596213553	2244.30559377481	994.662975363965	143.013077025505	2062.34539140565	1035.81662777929	147.501665430615	1574.60694464622
407.448416369205	142.915063851928	751.911857394497	1369.18116932801	180.080902728005	2095.01361041897	1664.23053721066	143.057123506049	2909.22795501615	1966.29171314332	160.023779221956	3170.7456750605	1388.65647865837	132.278770144076	2750.24365485496	1329.17800920785	149	2119.33739253668	735.115175287596	130.145911740222	1326.31378441803	947.301383469369	147.289830373762	1259.12783747911	896.263811224131	143.844051947113	1627.45591571904	635.022854365363	161.844051947113	777.20052811971	1077.66045201576	155.013077025505	1728.60012291721	560.584530867374	149.010422579711	644.160330625606	1159.64943696302	144	2168.22000598102	1330.47058867486	137.433055658507	2244.32542908722	994.736491452136	143.009300504501	2062.30228483951	1036.29027289257	147.5029943322	1575.55289440237
407.63992553927	142.905846523204	752.689465141586	1370.42223325611	180.142059654121	2098.66153063897	1664.57062841861	143.086263370969	2911.7999337168	1966.69139484867	160.04072345119	3172.99935516493	1388.72844450259	132.304941953964	2751.72471916545	1329.15757170606	149	2120.85623351952	735.262153462732	130.144701682061	1327.76451948751	947.466695217408	147.323620490933	1260.83768252911	896.123568526762	143.820383356211	1627.56091222892	635.064508472581	161.857761060371	777.950570228409	1077.58014965266	155.028429474207	1728.94403875517	560.630857944519	149.023779221956	644.510326489061	1159.82491353644	144	2168.67291634058	1330.42342991971	137.513676869888	2244.25110020407	994.76495308499	143.013077025505	2062.05174516153	1036.7003588025	147.530618399348	1576.32669083702
407.806474702329	142.894267536593	753.313287917832	1371.58793369534	180.219813076059	2101.92691677398	1664.86070885012	143.123127125378	2913.99368541692	1967.03418194036	160.061156926116	3174.93904082213	1388.81938685363	132.343822553818	2753.45101639177	1329.1676187912	149	2122.63689484283	735.428426672289	130.154193889924	1329.33440580686	947.654894206993	147.365497016951	1262.67484768209	896.089273901711	143.803698947011	1627.97687016035	635.161462540402	161.874352818591	778.76826009531	1077.65823801591	155.053800476695	1729.73977811234	560.705619567277	149.04072345119	644.885971198149	1160.0290949239	144	2169.26093738567	1330.32509914417	137.604603562277	2244.02095679534	994.72251410603	143.025106444853	2061.58484490239	1036.99994918995	147.581624544297	1576.84521272333
407.921087279017	142.884775398303	753.705098476079	1372.51277975163	180.309145484607	2104.46277253924	1664.99250970059	143.16356636017	2915.50106517792	1967.19161069239	160.082403674188	3176.25196609261	1388.88208726162	132.394960856575	2755.1855098762	1329.17160132637	149	2124.49235437017	735.590483424392	130.173675330643	1330.87267987187	947.817720829331	147.413545917944	1264.45413822333	896.148446311357	143.797835577687	1628.61194533838	635.285037291962	161.894267536593	779.550933469475	1077.87745381176	155.089586400323	1730.86913909548	560.798383397157	149.061156926116	645.238340587077	1160.21245573767	144	2169.93348083206	1330.1206966791	137.69823368249	2243.54241561178	994.579549431477	143.046700926337	2060.87786330552	1037.1404091567	147.650143482056	1577.00433956106
407.956878961332	142.881540282327	753.788115448719	1373.00930941637	180.399263641452	2105.88637126343	1664.84087423583	143.20095130524	2915.97599262811	1967.02418407323	160.101082211157	3176.59289141594	1388.82304609119	132.457082282644	2756.49493949552	1329.09579850834	149	2126.10729703123	735.692064137359	130.203745636985	1332.11877083811	947.876080531557	147.463766314598	1265.91488196318	896.254058510367	143.803698947011	1629.25857609687	635.380748101922	161.916269102915	780.151319699108	1078.16987302559	155.134876927986	1732.06909372983	560.880683113721	149.082403674188	645.486083250485	1160.30018045226	144	2170.54963193633	1329.75727113484	137.785959251402	2242.70214477344	994.308985040293	143.077556980975	2059.89331917857	1037.07763341697	147.726927714332	1576.69003852674
407.890268520076	142.886102621199	753.495715427717	1372.89457317445	180.475672685038	2105.81395057214	1664.2882930418	143.231291731438	2915.08288609044	1966.40776050766	160.1138973788	3175.6244929511	1388.50377097579	132.526496844706	2756.8119091055	1328.82948678582	149	2127.08499235804	735.646253317362	130.247037299278	1332.73625052279	947.720626962563	147.510008876469	1266.75104500383	896.329516857417	143.820383356211	1629.61780642237	635.371879892173	161.938843073884	780.391303961746	1078.4213578224	155.187345582126	1732.95794044042	560.907022057303	149.101082211157	645.521775239203	1160.20541671118	144	2170.89195216833	1329.19429895148	137.861263375233	2241.38185878904	993.896499284303	143.117932698753	2058.58696094764	1036.77983559525	147.801311700104	1575.79607142073
407.705110737334	142.898917788843	752.782911841795	1372.01531825957	180.523762885472	2103.92483993546	1663.24361768009	143.251573979557	2912.56895982409	1965.24849819423	160.118459717673	3173.07992390812	1387.76025035036	132.598359026186	2755.51010731769	1328.24585648241	149	2127.00203155685	735.346527078662	130.304298791394	1332.35553576389	947.226893606264	147.545344297787	1266.64922053061	896.272167899773	143.84537917001	1629.33341897119	635.166425925801	161.957949325913	780.082214472575	1078.48131522076	155.241674756429	1733.08481373621	560.820908547108	149.113897378801	645.22745756218	1159.84336218409	144	2170.68648328548	1328.40800896506	137.917770049098	2239.46232623494	993.340721095627	143.165584884303	2056.90338027811	1036.2308762153	147.86371267334	1574.23207259909
407.395267417809	142.917596325812	751.630734852327	1370.28228569419	180.530691619832	2100.01378553772	1661.66988780808	143.26026538002	2908.30166985452	1963.50975110497	160.1138973788	3168.79981169407	1386.43726218439	132.664629706459	2752.02158302819	1327.22865861305	149	2125.48742694497	734.686748157873	130.374433906049	1330.64111208206	946.277622489719	147.562298896416	1265.34239035387	895.971465954137	143.87381134399	1628.05319644223	634.674785470026	161.970243302896	779.05763259298	1078.18905121766	155.292448657554	1732.00326189328	560.566559005138	149.117132494776	644.495268103539	1159.15191124942	144	2169.64105163269	1327.40001190958	137.952516025141	2236.83974566496	992.657936963831	143.215777756107	2054.78022525506	1035.43695013305	147.904693023593	1571.93843154738
406.968302806421	142.937515850987	750.057340943569	1367.69818432291	180.488233860907	2094.05702503573	1659.59188408327	143.257457979105	2902.32214637473	1961.22015907416	160.101082211157	3162.78700809852	1384.42089919819	132.716556885998	2745.95626627319	1325.70151008786	149	2122.2965962021	733.586471864518	130.451384424236	1327.36035684548	944.789495255611	147.554846805472	1262.66449320255	895.331950222987	143.899869048056	1625.50560590128	633.828516647302	161.970522919636	777.211117240588	1077.40491282437	155.333977653745	1729.36447898184	560.099710667628	149.10924712655	643.255980411815	1158.1071334819	144	2167.5094842509	1326.20212753496	137.965872667386	2233.46174697982	991.883091686477	143.262020317978	2052.17229607463	1034.43079249403	147.91964144637	1568.91004036971
406.444164662688	142.954626296559	748.119014797563	1364.37296201898	180.394769957033	2086.24999934756	1657.10542932388	143.244642811461	2894.86102382454	1958.48476582948	160.082403674188	3155.22883740855	1381.67984631566	132.745779974587	2737.20799067438	1323.65691528064	149	2117.37562967261	732.014554388186	130.52491082286	1322.44791735573	942.744184351345	147.520243415155	1258.59810907705	894.300033304554	143.917792766774	1621.57932957841	632.604608805398	161.955170470934	774.535103016735	1076.0506827131	155.361347591176	1725.0099806245	559.40570022775	149.089332408549	641.506411064712	1156.73849675809	144	2164.14976485628	1324.87904793601	137.957166277391	2229.35122573405	991.065536889989	143.297383264146	2049.06550731782	1033.27197876885	147.904693023593	1565.2093802788
405.857940345879	142.964470975436	745.913015562115	1360.53010956585	180.255876764434	2077.01914663258	1654.38037784982	143.225536559432	2886.33702300409	1955.4884170256	160.061156926116	3146.50951312472	1378.28809070252	132.747633195318	2726.0264327823	1321.16968647476	149	2110.90057536119	730.008796974815	130.584059594239	1316.05103531945	940.20520284426	147.461216685259	1253.30705939068	892.887972712747	143.922420301349	1616.36617932922	631.039538822896	161.922420301349	771.136186060009	1074.1373036242	155.371355357906	1719.02343149989	558.506831655814	149.058624452232	639.318663852654	1155.13036497749	144	2159.5783214533	1323.52205829462	137.92819262881	2224.63731332595	990.264931080212	143.316061801114	2045.50418202304	1032.04096028751	147.862385450443	1560.97918353918
405.253792310352	142.964470975436	743.57248787741	1356.47816743223	180.083354933401	2066.98805185399	1651.63263089449	143.20481100202	2877.31993188475	1952.46554506401	160.042050674087	3137.17766874166	1374.43191914459	132.722783801153	2713.03286544668	1318.40045520565	149	2103.28018531554	727.680436366476	130.618121509955	1308.54168755497	937.324877675571	147.383646635115	1247.13832786053	891.180593774079	143.911718104898	1610.18470940517	629.233683208744	161.874340400738	767.240956274853	1071.77699988594	155.363102529134	1711.75718826861	557.463856813315	149.020433474926	636.84267560302	1153.41816861872	144	2153.99626409521	1322.24482251056	137.880392344938	2219.56008043768	989.545665324309	143.314760770662	2041.60263302685	1030.83409581737	147.796661447853	1556.43865656638
404.68104520926	142.953299073663	741.24979416856	1352.5765539973	179.892940313696	2056.89994097195	1649.10378819801	143.18733302633	2868.45543462889	1949.68004255457	160.028429474207	3127.88029079915	1370.39233213546	132.676450266991	2699.14811621751	1315.57404404747	149	2095.10442255695	725.20415302507	130.621325626312	1300.47743374392	934.329954851357	147.297116065259	1240.58211964222	889.330686269989	143.885042597189	1603.54292081746	627.34051977958	161.814388725609	763.168655804012	1069.17220384333	155.338106715335	1703.79092655447	556.369532761685	148.979566525074	634.286386262367	1151.76715222652	144	2147.7836068974	1321.16335947483	137.814932899984	2214.456456567	988.967627236845	143.29351402259	2037.54916187688	1029.74729955972	147.713850688827	1551.86578530036
404.187741662983	142.932865598736	739.102848690706	1349.18112553874	179.702616735854	2047.52625252753	1647.02305488569	143.177855877572	2860.3894423195	1947.3799610546	160.023499605216	3119.28633578478	1366.5095972849	132.619082279732	2685.4918906194	1312.95243111198	149	2087.08154851737	722.798645678776	130.594243033765	1292.54050160805	931.492987378966	147.212713525701	1234.21665615905	887.532741698674	143.847138895194	1597.06430495464	625.542754493773	161.750706936288	759.284741434779	1066.58560333401	155.29991573803	1695.84739437877	555.33394726811	148.941375547768	631.882782975245	1150.35409383349	144	2141.45473356132	1320.38626602558	137.734284163753	2209.72110416301	988.583339141375	143.255703041147	2033.58966669228	1028.87028851858	147.620386784953	1547.56600626001
403.81323910248	142.905846523204	737.271685553381	1346.59303812214	179.528977567213	2039.55162201982	1645.57191112822	143.178661909808	2853.66996039035	1945.76040654762	160.028429474207	3111.98031863289	1363.13220048962	132.561779488175	2673.20735257425	1310.79055359044	149	2079.92583190103	720.692367158789	130.542829803978	1285.43580998366	929.092993588252	147.140063847664	1228.61992408028	885.994812708651	143.80343708915	1591.39636854621	624.024979190366	161.690866933246	755.950700449267	1064.29995263899	155.253336645659	1688.68841903318	554.467710327919	148.910667591451	629.855556558501	1149.3399356229	144	2135.59706293578	1319.99742559909	137.642960755922	2205.75878070499	988.433418298377	143.207265107301	2030.00685231831	1028.27404819912	147.524501038249	1543.84042754137
403.585968594453	142.875138566887	735.862504267976	1345.02075154612	179.386106539831	2033.48984337616	1644.86609643692	143.188934303745	2848.6880981532	1944.94439157067	160.042050674087	3106.39638240006	1360.5694336051	132.514479843211	2663.29954433136	1309.30533129787	149	2074.25412471046	719.093512393069	130.476820622427	1279.79021388238	927.373410992145	147.085552980255	1224.28710380923	884.900714489943	143.761241188087	1587.09738411099	622.942027011252	161.642781470414	753.462562573878	1062.56792178018	155.203483779124	1682.98739153886	553.862279513439	148.89075287345	628.382253247077	1148.84200359634	144	2130.77887458636	1320.03845974201	137.546502604571	2202.92253866591	988.537402064012	143.155310402913	2027.07721775672	1027.99945988821	147.43260522577	1540.94430223164
403.519734116881	142.84537917001	734.938024478705	1344.56249449369	179.285024328674	2029.63566790496	1644.94785301246	143.206044749318	2845.64758186105	1944.9719461469	160.061156926116	3102.77357182103	1359.04862362821	132.483510388173	2656.51216508074	1308.6443431463	149	2070.52025962075	718.159861017212	130.407949213654	1276.07211965149	926.509872372407	147.05325630232	1221.57005468827	884.387450655951	143.726919452337	1584.57327244708	622.401570091602	161.613022073536	752.019975959705	1061.58098490151	155.154882687852	1679.25141577013	553.581734678175	148.882867505224	627.576256039493	1148.91986560261	144	2127.4645931995	1320.5062510821	137.452519943772	2201.45423093387	988.89571474805	143.106530629557	2025.02796765016	1028.05624539493	147.352764955512	1539.0545119338
403.614383612979	142.819056133314	734.514153247082	1345.19982503216	179.231594303067	2028.05046928926	1645.78263811416	143.224209336535	2844.55898181666	1945.79886444573	160.082403674188	3101.1435629372	1358.69484888314	132.46919961537	2653.24960489011	1308.87620050341	149	2068.96340104531	717.982409383223	130.346001732068	1274.54127607636	926.59049364982	147.041506499712	1220.64159391088	884.526556992195	143.70648597741	1584.02357271351	622.449306809667	161.605403766254	751.701761975431	1061.4426617609	155.110833148395	1677.75859909889	553.653674858488	148.886102621199	627.47820760229	1149.57296270495	144	2125.96072235378	1321.35761295755	137.369356713732	2201.47201816696	989.489048216294	143.06715711894	2024.01626699711	1028.42667876946	147.291603291795	1538.2647534424
403.856661895209	142.79904869476	734.563856649263	1346.81696988374	179.226944050817	2028.59320537605	1647.27112832974	143.238758811913	2845.26902700221	1947.31252315736	160.101082211157	3101.35378386477	1359.51351912889	132.46814251233	2653.55454411095	1309.97971351729	149	2069.59853677968	718.572218415675	130.296680484111	1275.22762398843	927.60590242959	147.048028149234	1221.48844869032	885.317968220602	143.702616735854	1585.43421616472	623.069697153225	161.620213061666	752.469931896929	1062.16195513736	155.074233951621	1678.5436123565	554.071205865786	148.898917788843	628.058505096047	1150.74238301835	144	2126.3684029388	1322.51571410437	137.303985182156	2202.94110432762	990.280428059804	143.040179276815	2024.09383104845	1029.06996980189	147.254578058648	1538.57043372666
404.223283894659	142.786085775079	735.030797220071	1349.22351810994	179.268624273815	2030.98014649064	1649.2647248944	143.244106899082	2847.52055854468	1949.34580690791	160.1138973788	3103.13202559599	1361.40620354258	132.472697123058	2657.1533299059	1311.86268770751	149	2072.24610528359	719.868952174669	130.261846594691	1277.95477252851	929.462726402711	147.068461624161	1223.93927872904	886.700509714744	143.715431903498	1588.60671220019	624.197623688933	161.654274977382	754.189791557675	1063.66618847461	155.046700926337	1681.42439420308	554.798471619858	148.917596325812	629.234449705504	1152.32658610727	144	2128.58890983677	1323.88454666433	137.26219636593	2205.69798191221	991.219697610812	143.028149857467	2025.21063878329	1029.93176547813	147.245252136697	1539.88731597659
404.683422945603	142.778592502158	735.843677368015	1352.1848460658	179.349250292369	2034.85359573439	1651.58248309941	143.237007348724	2851.00936906693	1951.69822915781	160.118459717673	3106.15075062693	1364.18549125626	132.474293710764	2663.5137029266	1314.36993964196	149	2076.56968757345	721.74861481554	130.237807552701	1282.3786312119	931.997138230213	147.100130951944	1227.70125943777	888.565577497258	143.742542020895	1593.20580609069	625.732272908379	161.703145792602	756.662257844778	1065.82079647711	155.031083920001	1686.0511769117	555.780127406188	148.940170296781	630.889313164725	1154.20645622972	144	2132.35383863573	1325.37088613926	137.2478203478	2209.48041971792	992.255022091504	143.029756697104	2027.22707915547	1030.95950090644	147.264764577034	1542.06985504488
405.203543699834	142.773682429873	736.924637592403	1355.45681578747	179.458497418919	2039.83374387084	1654.03465837003	143.216306812854	2855.41919335957	1954.16419665182	160.1138973788	3110.07233981009	1367.60631745169	132.465599876566	2671.94274689193	1317.31041625405	149	2082.13998448129	724.047720577084	130.219891700069	1288.05189436621	935.00561815162	147.142588710868	1232.41632401854	890.778054696942	143.779659905021	1598.83177377882	627.557774615336	161.760530935315	759.662028614314	1068.45580069057	155.028149857467	1691.98139395079	556.951005668103	148.963926801061	632.893004223036	1156.25931293832	144	2137.27789691435	1326.8935015841	137.26219636593	2213.96902442904	993.336537000263	143.042050674087	2029.93501561708	1032.10808669945	147.311603489438	1544.93250976042
405.751347665123	142.767822189035	738.202546847818	1358.81214368137	179.585663526586	2045.56843971988	1656.4440105738	143.183485885345	2860.46786097996	1956.55741789951	160.101082211157	3114.60574721362	1371.39537220315	132.443598310244	2681.68064746342	1320.47831974847	149	2088.4909849002	726.585383768393	130.202278528136	1294.49132395476	938.268521901245	147.196127329702	1237.71168610503	893.195240028693	143.821599948054	1605.0709996617	629.555166655335	161.821599948054	762.967008977471	1071.38876532636	155.040179276815	1698.73498683915	558.242392984405	148.987970580652	635.116032010667	1158.37597671704	144	2142.92698392469	1328.39396722809	137.302657959259	2218.84081675401	994.422264289087	143.061156926116	2033.09639442995	1033.34120809291	147.381738604094	1548.28070429878
406.298576097279	142.757205868135	739.615298555027	1362.06127940711	179.719828163975	2051.7471679512	1658.6653281884	143.144887823202	2865.91435188572	1958.73207420813	160.083730897085	3119.52178269882	1375.28605701718	132.409803455472	2691.97065905593	1323.67506032341	149	2095.16341830438	729.18826603587	130.182271089583	1301.23169187688	941.578219524313	147.261846594691	1243.23723931586	895.684919568288	143.863388764279	1611.54962934406	631.616278658619	161.882517733985	766.380409484342	1074.44748797927	155.065829896043	1705.85563132203	559.58811559404	149.012029419348	637.437699321164	1160.46871965275	144	2148.86964561907	1329.83233419761	137.363379238585	2223.7903918315	995.480308149927	143.082403674188	2036.46406661221	1034.63082233937	147.467784479095	1551.91607965423
406.822880319409	142.740261638901	741.104824535686	1365.05778604501	179.851766429769	2058.09099490048	1660.59480681111	143.106530629557	2871.5435636453	1960.59294367584	160.065807178367	3124.63670218801	1379.04044701361	132.369854411722	2702.11768900739	1326.72797771039	149	2101.74051482557	731.706022912675	130.159271082241	1307.86658064862	944.756617069881	147.339687930007	1248.69029779332	898.131557687842	143.901196270953	1617.95090521109	633.645246975583	161.940592499246	769.736966568538	1077.4783480755	155.101880377306	1712.93774791709	560.924514094424	149.036073198939	639.745223636421	1162.47036435613	144	2154.71148811364	1331.18195659138	137.434792666016	2228.53705521489	996.483743953261	143.101082211157	2039.79464849353	1035.94787032466	147.560439847425	1555.63589647502
