Light	Light	Light	Light	Light	Light	Light	Light	Light	Light	Light	Light	Light	Light	Light	Light	Light	Light	Light	Light	Light	Light	Light	Light	Light	Light	Light	Light	Light	Light	Light	Light	Light	Light	Light	Light	Light	Light	Light	Light	Light	Light	Light	Light	Light	Light	Light	Light
Optode1-730nm	Optode1-Ambient	Optode1-850nm	Optode2-730nm	Optode2-Ambient	Optode2-850nm	Optode3-730nm	Optode3-Ambient	Optode3-850nm	Optode4-730nm	Optode4-Ambient	Optode4-850nm	Optode5-730nm	Optode5-Ambient	Optode5-850nm	Optode6-730nm	Optode6-Ambient	Optode6-850nm	Optode7-730nm	Optode7-Ambient	Optode7-850nm	Optode8-730nm	Optode8-Ambient	Optode8-850nm	Optode9-730nm	Optode9-Ambient	Optode9-850nm	Optode10-730nm	Optode10-Ambient	Optode10-850nm	Optode11-730nm	Optode11-Ambient	Optode11-850nm	Optode12-730nm	Optode12-Ambient	Optode12-850nm	Optode13-730nm	Optode13-Ambient	Optode13-850nm	Optode14-730nm	Optode14-Ambient	Optode14-850nm	Optode15-730nm	Optode15-Ambient	Optode15-850nm	Optode16-730nm	Optode16-Ambient	Optode16-850nm
530.87686601899	142	880.702965459775	833.451728984321	243.339485689609	1081.15120459588	585.821921553249	151.320712053365	858.875369030027	1222.3962987131	163.54185235232	1542.74997921499	1194.16461030355	140.624783045429	2093.78077172152	1092.69015493002	152.319157031138	1573.61019176628	482.337368562558	135.261592602917	721.295496042552	1159.4513460907	173.732702949082	1562.41994397322	642.415968427253	148.985971715282	893.841747956721	970.08386478372	188.517723359125	1236.7767274521	1159.97930696447	188.045547426727	1907.58380771125	1280.86754663001	148.862061541382	1614.85472249758	956.354606280297	176.888106827594	1875.30637165461	1219.54118549578	137.310198431789	2180.26939430116	804.416579579221	216.568445287676	1548.19613633087	1068.28254832024	141.113897378801	1717.59369728136
531.416551368916	142	882.065885411368	834.285539985938	243.673033762037	1082.39697487106	586.402680125604	151.327837796167	859.818999187293	1223.88810661442	163.641633533025	1545.08669685677	1195.73796475418	140.689701015783	2096.75732294707	1094.75580796325	152.443990939401	1576.96075847492	482.960381276194	135.294929158865	722.547364245695	1161.71010182279	173.838885845226	1566.07364081253	642.841861499868	149.030428339576	894.758646590895	970.804578062833	188.655399959881	1238.33486475643	1160.74756675687	188.206983590677	1908.83545690403	1281.38386442551	148.911618850664	1615.95586810753	957.216619070254	176.975072840655	1876.88884171419	1220.20678556066	137.320624139986	2181.75430433073	805.45416726133	216.84591383382	1550.66004555229	1069.41710713199	141.118459717673	1720.33123131792
531.855028087741	142	883.098185783702	835.093547462831	243.986922974495	1083.47557303984	586.906536307735	151.321943496797	860.470514417878	1225.17544233285	163.734284163753	1546.93007818093	1196.97228819972	140.728835745353	2098.49285324868	1096.31877657842	152.529740360619	1579.12880540164	483.463293440021	135.319672880774	723.420364004104	1163.1097239472	173.911792573951	1567.82555882162	643.150355082796	149.07651967464	895.345316151019	971.151338419992	188.768231973646	1238.93537281774	1161.30433992153	188.342936253094	1909.39226568436	1281.55963510102	148.956644820692	1616.13087616299	957.748287206247	177.032994650796	1877.4970244641	1220.498605761	137.311525654686	2182.19865643426	806.252090670345	217.073093659123	1552.55833413775	1070.335461703	141.113897378801	1722.64231209911
532.124323407676	142	883.701723295441	835.800299069509	244.292559288608	1084.3165047411	587.272810969682	151.309503517842	860.779577240982	1226.10024749699	163.814932899984	1548.14919049515	1197.79062940512	140.742026171259	2098.87004554435	1097.29204625684	152.581427866121	1579.99411364818	483.799534586345	135.33756254096	723.828302414685	1163.56957483379	173.957166277391	1567.57460454245	643.300227906327	149.118459717673	895.525919635687	971.100970177395	188.855285900085	1238.52959704584	1161.60875531018	188.447336686431	1909.23002833801	1281.37101541574	148.998672777103	1615.361600274	957.930729285204	177.065553186592	1877.04532244625	1220.41518101804	137.286676330094	2181.51977131758	806.798282217778	217.246559104478	1553.80763070408	1071.04161120583	141.102409434054	1724.45232485609
532.187370030383	142	883.850363629069	836.348589001612	244.599409135651	1084.90126210119	587.460966427683	151.298178730521	860.746328276971	1226.55571931263	163.880392344938	1548.71418787479	1198.16928001829	140.734284163753	2097.94626495429	1097.6703486684	152.609846970933	1579.61904409404	483.943504705223	135.353716214724	723.744288238523	1163.12240461459	173.982272722244	1565.46128094146	643.264071531611	149.152602305858	895.268819022484	970.677545792031	188.919097271995	1237.20687880358	1161.65023228538	188.520243415155	1908.42400581072	1280.83438856553	149.038704927057	1613.76134585616	957.798414641624	177.082403674188	1875.61494672628	1220.01217577348	137.254751781934	2179.82073928529	807.121777444234	217.372573678062	1554.44283383871	1071.58339034829	141.088381149336	1725.81045277123
532.037899805566	142	883.570962759343	836.711046049749	244.915317843702	1085.2474255439	587.454984200372	151.29483758315	860.404031573736	1226.50455229149	163.929519851706	1548.66766333203	1198.13597439678	140.713213038852	2095.91616698218	1097.51710337239	152.628289308634	1578.20381533734	483.892508722153	135.373223917461	723.197227922199	1161.89225237662	173.994022524852	1561.80294531712	643.032580989702	149.176386334988	894.585689912961	969.938180518217	188.963143752539	1235.15600674461	1161.44699193217	188.567399581404	1907.11645735139	1279.99758801897	149.075304123831	1611.52993184903	957.422607620159	177.09668595068	1873.41721684845	1219.38039007842	137.227524858941	2177.3468444935	807.276253936678	217.46619845725	1554.58178676362	1072.03188563815	141.078884203872	1726.85039014779
531.696018469111	142	882.926067821094	836.889334670752	245.244469088175	1085.39806805763	587.261754859843	151.304298791394	859.805208311788	1225.97547575193	163.963143752539	1548.10117929603	1197.75698495638	140.688758699654	2093.05782968394	1096.93753553153	152.648833414614	1576.0198608058	483.665693519679	135.400844856123	722.260606927448	1160.05947588263	173.998672777103	1557.01374462238	642.618135075767	149.190585435703	893.533618502246	968.956905834427	188.994022524852	1232.62216667759	1161.03958351739	188.598359026186	1905.48582698808	1278.92750447078	149.109508984411	1608.91412925119	956.89306745238	177.121626179195	1870.73146483948	1218.62273283708	137.217106878888	2174.41173793585	807.322349648796	217.545625814411	1554.37092618783	1072.4567922442	141.082229950902	1727.72981437347
531.202460210172	142	881.992601864588	836.91323425074	245.587676488498	1085.40205355983	586.911215726607	151.327960845075	859.008343942496	1225.05742015503	163.983599945141	1547.12327397705	1197.12136805553	140.668839174479	2089.66929775665	1096.05456238113	152.67926175419	1573.34527215268	483.298568260017	135.439704776128	721.035193875334	1157.83114360007	174	1551.52920453305	642.053549484871	149.198833526873	892.201119587791	967.81339954777	189.019128969705	1229.85914950987	1160.48474886373	188.625054192658	1903.71055953935	1277.69800656381	149.142326853007	1606.15349706072	956.295582920581	177.167166098974	1867.84215544322	1217.82707395513	137.232973277341	2171.32485964217	807.308121378774	217.62996630277	1553.94067351493	1072.8994667341	141.106009172858	1728.57335329116
530.608451897402	142	880.853394513736	836.830520737894	245.941282072168	1085.30048760839	586.449795747459	151.362928805848	858.074009644863	1223.8779516765	163.995349747749	1545.84456305217	1196.32846695937	140.658831754033	2086.04081270892	1094.99106680084	152.72253626103	1570.43394765235	482.83746514673	135.490446363442	719.637884174682	1155.41806119695	174.001327222897	1545.76613329449	641.387938409402	149.204556872303	890.695580292893	966.585384700006	189.045373703441	1227.08812223431	1159.84757032138	188.658046005737	1901.93889625349	1276.38513122968	149.175583223722	1603.44587005786	955.697494458981	177.238867576711	1864.97690377207	1217.05412661822	137.279591027901	2168.32102808746	807.263464586371	217.733695093634	1553.36622018565	1073.36524014722	141.155136679626	1729.42206797053
529.969057325395	142	879.595404953261	836.694861113425	246.298181430295	1085.12018035989	585.933551018506	151.40548269052	857.06565773701	1222.58074860553	164.004650252251	1544.37319118597	1195.48028897283	140.661893284665	2082.42882440648	1093.86446452675	152.777117886362	1567.49486264662	482.334246367239	135.551060136269	718.186408640651	1153.02495125951	174.005977475148	1540.09710029845	640.679373426278	149.210583329481	889.130321665942	965.34355368163	189.078884203872	1224.4860139613	1159.18929649284	188.703826724442	1900.28162572442	1275.05978869639	149.210583329481	1600.93863872153	955.140169553549	177.336173266864	1862.28149196883	1216.33094298148	137.35530223657	2165.53531049572	807.194624058853	217.867250360945	1552.66506651018	1073.81905177082	141.230440803457	1730.22524335942
529.336887605921	142	878.310152838987	836.555183636539	246.647235044488	1084.87836619018	585.420496531096	151.450511789034	856.053760224917	1221.30088960138	164.017727277756	1542.81865675136	1194.67403551206	140.676822755906	2079.05217073664	1092.78133677228	152.83731042999	1564.69609979236	481.840510298728	135.617418729921	716.791570151943	1150.84236635081	174.017727277756	1534.85176818269	639.987407372711	149.219014909909	887.613780877337	964.15494443083	189.1239101739	1222.1816773349	1158.5656917322	188.764994019954	1898.81233813266	1273.78930699408	149.247988558491	1598.73207903581	954.641303364685	177.455174389565	1859.8220675965	1215.65928542347	137.453847166669	2163.01187695146	807.093694288543	218.036682524175	1551.81525336312	1074.20036326864	141.32819998526	1730.86317223594
528.757302492188	142	877.097661519232	836.445910495306	246.97761005214	1084.5922311679	584.963758926001	151.494837816745	855.117311945637	1220.14715698358	164.041506499712	1541.29814523628	1193.99366491494	140.701818569705	2076.10120879717	1091.83441283924	152.899446845591	1562.18216150393	481.401132172182	135.685418514846	715.551845250029	1149.03733121995	174.042833722609	1530.32492639286	639.368687567497	149.228859588786	886.241493487962	963.09016151082	189.183312162058	1220.26625806073	1158.02877777554	188.837760862727	1897.58168960938	1272.6468458266	149.285366262651	1596.89543255946	954.206707194643	177.587659333043	1857.61080709491	1215.03390179853	137.563880111087	2160.73776472904	806.952108880879	218.242284081665	1550.7867002005	1074.44711886909	141.440770141163	1731.1904927462
528.263699232799	142	876.059254528202	836.382031179127	247.279638830935	1084.28416356818	584.601274191613	151.537983110764	854.338817038992	1219.18884232888	164.082229950902	1539.93264366973	1193.51177478583	140.733332904541	2073.75192327675	1091.10403261975	152.960603771707	1560.09341392481	481.053800669067	135.749903207917	714.550766477877	1147.75051445228	174.086880203152	1526.78651124251	638.873338659518	149.238865676827	885.091789305289	962.224604427277	189.258611478715	1218.80636472376	1157.62802836054	188.915577801679	1896.62901636833	1271.71250877206	149.319942128118	1595.48298871404	953.840866140245	177.726927714332	1855.64665293262	1214.4552290397	137.674454460534	2158.69425606559	806.769312568457	218.480787035547	1549.58224125268	1074.51381558574	141.559229858837	1731.09209432356
527.875232234859	142	875.285958838949	836.356972770982	247.545357366956	1083.98373801985	584.352075574961	151.579947550161	853.792530359044	1218.45014351311	164.143386877018	1538.83172453931	1193.27472133807	140.768169922447	2072.15247588165	1090.64774604523	153.021594481484	1558.56025310259	480.821279997505	135.808522922548	713.851656430008	1147.07671233915	174.156463902523	1524.46340823484	638.539802214784	149.246237095302	884.228365041395	961.638077124736	189.34890052113	1217.86353119202	1157.41135444235	188.991695198655	1896.00787575159	1271.07051688922	149.348646529356	1594.55622298051	953.558417870568	177.865123072014	1853.94542153395	1213.94232432572	137.775536671691	2156.88999404934	806.564329891608	218.745712095128	1548.25606370708	1074.39108159013	141.673127237637	1730.52261020558
527.597626176201	142	874.846447918444	836.351074960879	247.770938170817	1083.7250764494	584.216685738257	151.622138248142	853.531666892667	1217.91974570579	164.225790551206	1538.08046867916	1193.30669570359	140.803983301352	2071.42435816266	1090.4981643811	153.086263370969	1557.70152401966	480.714335042201	135.858738512028	713.497239739114	1147.05680923867	174.25554724831	1523.52548607993	638.39215897965	149.251835837418	883.688992297395	961.40021077836	189.453847166669	1217.4849037311	1157.42024651988	189.061685982864	1895.77151905061	1270.79462746056	149.370383468469	1594.1682998879	953.388932599223	177.997467526116	1852.57027756459	1213.53716060723	137.861263375233	2155.39602464263	806.374055545838	219.029235506443	1546.92751376493	1074.11049495042	141.774209448794	1729.53759793413
527.426970318161	142	874.76366822556	836.340583439874	247.956035495457	1083.52599892369	584.182501229987	151.664979477698	853.567868108116	1217.56585343398	164.326872762363	1537.70185368209	1193.60156600981	140.839401694862	2071.62967190864	1090.65352466254	153.158656149942	1557.59318080947	480.728640856206	135.899869048056	713.502156114154	1147.6634513541	174.385323491309	1524.03897690434	638.439697009751	149.256486089669	883.489295491211	961.560061104472	189.571609049424	1217.70359458164	1157.68611966357	189.125647181409	1895.97714097894	1270.93756978189	149.38669560995	1594.36337759488	953.36988408474	178.121515686083	1851.61974439742	1213.29205164288	137.930847074603	2154.32711627486	806.245216751516	219.321960652251	1545.75446950269	1073.73596411397	141.856613122982	1728.2782941744
527.35264289094	142	875.009036975482	836.306074802551	248.101678136908	1083.38380893903	584.229261773788	151.706113488495	853.867566391481	1217.34961808896	164.440770141163	1537.65320383107	1194.12823272788	140.87381134399	2072.73738748754	1091.07804190454	153.243141865278	1558.23455724529	480.850186766913	135.932865598736	713.848629948072	1148.8016869618	174.543433566992	1525.92618130618	638.675912272963	149.263964373058	883.613558551127	962.126721106787	189.70008426197	1218.51337468995	1158.21945568175	189.18761264307	1896.65724968875	1271.50906638118	149.401640973814	1595.14463448735	953.536875969612	178.237024504179	1851.20627402672	1213.25458269288	137.986922974495	2153.81678289986	806.223160308871	219.614409309805	1544.90044488307	1073.34646085429	141.917770049098	1726.94492301385
527.362715699412	142.001327222897	875.50448137692	836.238947652828	248.209974004246	1083.26546021153	584.339203676343	151.742710937008	854.354933790903	1217.2427298806	164.559229858837	1537.82783177682	1194.83461165513	140.905846523204	2074.60529453273	1091.70590294309	153.33836070711	1559.52676160934	481.05494571431	135.957949325913	714.482756371084	1150.32097219581	174.72253626103	1528.94665331896	639.076661112407	149.279044953642	884.011894217258	963.058436443469	189.835620366684	1219.84278566013	1159.00175412563	189.252634003568	1897.79154743641	1272.46606480698	149.420850615988	1596.4464862398	953.910532389361	178.345201528092	1851.41090978417	1213.45211523893	138.034745976042	2153.96128570312	806.339455303974	219.896009351275	1544.48588204427	1073.01579000996	141.958493500288	1725.73825198679
527.443504855445	142.004650252251	876.132475270679	836.140310002177	248.282891102365	1083.1137312796	584.497461899972	151.769128422569	854.925912943412	1217.22528888668	164.673127237637	1538.0759959825	1195.65152331518	140.934192821633	2076.98432224197	1092.4474934618	153.440682227785	1561.27246634824	481.314060028455	135.976220778044	715.316736402666	1152.03034780505	174.912946073561	1532.7096797234	639.601544035262	149.30511206454	884.598987417391	964.261870798149	189.973589049926	1221.54267104318	1159.98300717847	189.324218316569	1899.28892882729	1273.71230396317	149.448672664844	1598.11794214865	954.477118526048	178.446280610763	1852.25106001808	1213.86795804918	138.078958672925	2154.77843733959	806.59741654329	220.156528861012	1544.55961088278	1072.78765124692	141.982272722244	1724.82033639323
527.580129160335	142.011749802608	876.765481015947	836.017018698287	248.324226716507	1082.8662823627	584.694026539136	151.782636222048	855.474248950236	1217.29112091807	164.774209448794	1538.24640635325	1196.50025252054	140.957949325913	2079.53823364645	1093.20154282276	153.542917717356	1563.19627512122	481.595285902321	135.988250197392	716.235607468019	1153.72477658189	175.102147576192	1536.71821509888	640.196549532167	149.346001732068	885.260363386585	965.602418959748	190.108461378254	1223.39144513075	1161.08406728964	189.404626184301	1900.98479230657	1275.11021183009	149.489562332373	1599.92872517464	955.185910497542	178.540437216045	1853.63544545958	1214.43841491852	138.121799902481	2156.15499493225	806.971530722256	220.384759061818	1545.06770823705	1072.66685991552	141.994022524852	1724.25658559697
527.753485791267	142.023779221956	877.287952999218	835.876760447487	248.338089559881	1082.47073610453	584.920397898466	151.780614639002	855.912833468589	1217.43354306684	164.856613122982	1538.22258443826	1197.29709554015	140.976220778044	2081.89826080265	1093.86674403036	153.636532848037	1564.98861046232	481.864065747777	135.995349747749	717.110936457876	1155.2094434702	175.276839158165	1540.44237902148	640.797908402262	149.400844856123	885.870116781747	966.925753323719	190.233678757149	1225.12727317583	1162.20505055631	189.490177264672	1902.66823027668	1276.49962829946	149.54265051847	1601.60614448103	955.950892820208	178.625321391544	1855.37544675578	1215.05924830501	138.162239137273	2157.85288362031	807.408814993225	220.571842786083	1545.86458652739	1072.62044247404	141.998672777103	1724.0109285277
527.939942431418	142.04072345119	877.616800711232	835.724164675311	248.332488048418	1081.90165131662	585.165732982624	151.765637448563	856.187092048323	1217.64306449894	164.917770049098	1537.94336697442	1197.96737231716	140.988250197392	2083.72259992411	1094.35571680004	153.713480237739	1566.36038109519	482.089029836919	135.998672777103	717.819398813976	1156.32428896467	175.425736642725	1543.40340248964	641.338222348203	149.46692696152	886.306228348802	968.082913288147	190.343973559429	1226.48817704759	1163.24051646208	189.57617408807	1904.11109289147	1277.72639523473	149.604603562277	1602.87418042968	956.662751665164	178.697689774153	1857.20603770129	1215.59659206063	138.196301052989	2159.54182998413	807.837302730671	220.711652641972	1546.74405962899	1072.58539446203	142	1723.96136487935
528.112502305269	142.061156926116	877.710417717967	835.558968000975	248.317643015785	1081.16798969501	585.414522614554	151.74201310209	856.278430572949	1217.89803069886	164.958493500288	1537.41198867798	1198.44826877913	140.995349747749	2084.75216627503	1094.60259945534	153.769559196543	1567.09041466534	482.241708290518	136	718.258665512718	1156.95512669801	175.539921366409	1545.23996844468	641.757551762892	149.53772329073	886.474253212971	968.952714495961	190.436387087799	1227.26249069866	1164.09332195532	189.656183008403	1905.12016426461	1278.66215407272	149.669260033908	1603.51439992813	957.210918145861	178.755530911825	1858.84378559349	1215.91844199228	138.21954192883	2160.86492703656	808.184636215701	220.802029597765	1547.48875680392	1072.49258591109	142	1723.94141297611
528.24272708112	142.082403674188	877.566333444542	835.378566629976	248.307766510333	1080.307696269	585.647179542134	151.717886008779	856.196380015799	1218.16802812937	164.982272722244	1536.67743451717	1198.69545816536	140.998672777103	2084.84904735427	1094.5647137889	153.803183097375	1567.0568443187	482.29942604363	136	718.361759669045	1157.03343495101	175.61389346017	1545.74979264058	642.007229892068	149.606254694235	886.314514302295	969.455907080369	190.510773994541	1227.31626706377	1164.68691231332	189.724802325286	1905.55641015275	1279.22170691136	149.729452577536	1603.39028886045	957.508372498197	178.79798867075	1860.04322941702	1215.9204283524	138.227794757601	2161.51420364026	808.392579081495	220.847289900805	1547.91762178328	1072.28766935301	142	1723.79108528779
528.305779482462	142.101082211157	877.20871121098	835.17990099813	248.318031397323	1079.37867978221	585.840808993875	151.701289512958	855.964806552297	1218.41419596497	164.995349747749	1535.81075785611	1198.6803712657	141	2083.99496479687	1094.21940303882	153.816687837942	1566.23915234535	482.244979341912	136	718.100259465631	1156.53321947296	175.646076737704	1544.89065268186	642.057759090786	149.664700464383	885.813787729426	969.560762368339	190.569390580687	1226.61359696801	1164.97675518786	189.778859701044	1905.36401842689	1279.36736395348	149.780186923941	1602.47099032669	957.504781883779	178.826682702592	1860.65419445719	1215.54546996223	138.21954192883	2161.30191066812	808.429829083003	220.855285900085	1547.93076964164	1071.94491139582	142	1723.4094824941
528.285069032047	142.1138973788	876.676522307302	834.964362382209	248.363125484024	1078.44470718105	585.975656348553	151.698054396982	855.611436126258	1218.60129686193	165.003323029354	1534.88156393786	1198.3972858325	141	2082.29198460613	1093.56866658178	153.815622472906	1564.71664590805	482.069640820597	136	717.489099124058	1155.47075397806	175.640052318354	1542.77266751975	641.900403783728	149.707181912443	884.998019398175	969.280519256555	190.615736532702	1225.20844392126	1164.95166129434	189.818015060839	1904.56654260407	1279.10817384858	149.818015060839	1600.82113704135	957.197559755356	178.845117312148	1860.63375573211	1214.7940461357	138.196301052989	2160.17934337339	808.29712541669	220.83871212194	1547.51711615685	1071.47464166415	142	1722.76518172048
528.171936771319	142.118459717673	876.012788323835	834.736751713359	248.456586688124	1077.56409871768	586.03610858412	151.711048316283	855.16081303525	1218.69788285206	165.013077025505	1533.94016044166	1197.86178529714	141	2079.92351931564	1092.63599474594	153.807306330706	1562.63459276817	481.773385465307	136	716.574905765822	1153.90091809496	175.603276477323	1539.61956617162	641.547954778528	149.730965941573	883.92765028972	968.666208504826	190.65322967509	1223.23501816795	1164.63592663989	189.844596121488	1903.26182704433	1278.49314810648	149.844596121488	1598.59008704297	956.625674521826	178.857673146993	1860.04765784326	1213.72194943933	138.16356636017	2158.23719634718	808.024624746411	220.811863862404	1546.7491959351	1070.91744299554	142	1721.8978840642
527.969772349005	142.1138973788	875.253226162278	834.509237327546	248.608667537283	1076.77696459949	586.015675109193	151.73973461998	854.628171969621	1218.68626219443	165.029756697104	1533.00419633751	1197.11594755618	141.001327222897	2077.11298945957	1091.47297994463	153.800375917657	1560.17536582541	481.369132544917	136	715.426910138997	1151.91980395295	175.547200439489	1535.7246678443	641.03271214191	149.736826182412	882.68685905131	967.799284276875	190.685412952625	1220.88932271901	1164.08542673242	189.863813004571	1901.61136820869	1277.603167247	149.863813004571	1595.99311923064	955.859321038297	178.869790479719	1859.03923084952	1212.42585559518	138.127777377629	2155.6761919753	807.663033384791	220.79099788519	1545.75662248262	1070.33033019211	142	1720.89786358861
527.690302503756	142.101082211157	874.427036561068	834.29573478712	248.824951494518	1076.10305505775	585.917031896321	151.779919725055	854.02260681773	1218.55740378204	165.058450728946	1532.06486561368	1196.22497473608	141.004650252251	2074.07907842288	1090.15696539575	153.80115860704	1557.52146985846	480.880906946005	136	714.123225445802	1149.65938293023	175.486577121887	1531.40545544527	640.403175740925	149.728568546467	881.371351479156	966.779943631437	190.715867484646	1218.39627023856	1163.38016414035	189.881452368949	1899.80754096696	1276.54053188035	149.880125146052	1593.27521572977	954.987113467959	178.8861026212	1857.78667091701	1211.03242235085	138.096685950681	2152.75627811695	807.275676273496	220.79134765643	1544.68949134963	1069.77894007424	142	1719.87216224242
527.354434112386	142.082403674188	873.556314299598	834.115566728046	249.108843141373	1075.54048447366	585.752803808223	151.826011060119	853.348846951899	1218.31971672532	165.102663425828	1531.0916617339	1195.2773913493	141.011749802608	2071.02301128484	1088.79099931235	153.815448749619	1554.84323864068	480.346080751987	136	712.743935071763	1147.28439349651	175.437273388523	1526.97631180562	639.719882570284	149.711851823457	880.076144520433	965.719354495166	190.748257638181	1215.98487723127	1162.61642197057	189.903568041094	1898.050296408	1275.42250298754	149.897590565946	1590.68265473602	954.101481386038	178.910667591451	1856.47481197341	1209.67859316751	138.076252475754	2149.76298176451	806.92686656182	220.826876680994	1543.69486530296	1069.32369801578	142	1718.92529306607
526.988786109771	142.061156926116	872.659841034072	833.98706520152	249.457913911021	1075.07177771585	585.542582667835	151.872222622371	852.612530782499	1217.99258560081	165.16463362509	1530.05061942303	1194.37347462684	141.023779221956	2068.09280401768	1087.49276041067	153.845489801064	1552.27523846115	479.809953131609	136.001327222897	711.360040623395	1144.97381859344	175.413752965515	1522.70935425311	639.046259738126	149.692865798616	878.888878892937	964.72404222756	190.787112751012	1213.86047103186	1161.89209994748	189.935323603567	1896.52048484084	1274.36110868411	149.917596325812	1588.43363259212	953.287988742169	178.947353022915	1855.2574400655	1208.49221837339	138.070480148294	2146.95765088482	806.6745513218	220.908756860656	1542.89007027584	1069.01053844752	142	1718.13441219436
526.624364791307	142.04072345119	871.75797747297	833.930927250429	249.867600132184	1074.67208736591	585.31179436818	151.913736629031	851.823778851902	1217.60889008566	165.244469088175	1528.91541905871	1193.6048180818	141.04072345119	2065.38998567315	1086.37311122473	153.892080096347	1549.91456047503	479.3178540117	136.004650252251	710.033746015489	1142.89614976839	175.428584928978	1518.81861435528	638.441140029576	149.67592324807	877.879433210279	963.885794722294	190.837216688352	1212.17761279285	1161.29486891845	189.980349573596	1895.35442687172	1273.4541370934	149.938843073884	1586.68420999234	952.613292047426	178.997293802829	1854.24237222544	1207.57679527414	138.080211426769	2144.54725057892	806.561699294917	221.043458165471	1542.35039269792	1068.86501725379	142	1717.53878127548
526.292207054809	142.023779221956	870.87784012053	833.96599797617	250.329781199931	1074.32087632595	585.087569776075	151.947526746202	851.003829235916	1217.21303654709	165.341015152904	1527.68601261399	1193.0451836153	141.061156926116	2062.98852764365	1085.52169187705	153.954022770759	1547.83377230112	478.91095656006	136.011749802608	708.820097201695	1141.19088237459	175.487986917137	1515.46318085127	637.950184577663	149.665674612842	877.098835677106	963.267260451746	190.903829898955	1211.02644267409	1160.88594878772	190.041506499712	1894.63104079128	1272.76686940015	149.95927654881	1585.51594769286	952.118334362632	179.061939974638	1853.4906056787	1206.99255046453	138.103453981298	2142.66878361761	806.609117852878	221.232921525964	1542.11320537017	1068.88650091938	142	1717.13998171587
526.019774319	142.011749802608	870.053039721116	834.108671317971	250.83172133638	1074.00767718696	584.894166471114	151.971570525793	850.184112366035	1216.85327945852	165.449982732287	1526.3883554638	1192.73125733148	141.082403674188	2060.93711177627	1084.98769088051	154.029756697104	1546.07644459102	478.615451934096	136.023779221956	707.764877017031	1139.94555616953	175.593480240359	1512.73825877147	637.599567728873	149.662525372418	876.576529759355	962.894649543582	190.989398134781	1210.4279478806	1160.6909612202	190.119607655062	1894.37033986248	1272.32068282056	149.976220778044	1584.93171536548	951.817624948719	179.140854403134	1853.01408166975	1206.75219526944	138.137938458618	2141.37572489082	806.815671245133	221.474487689166	1542.17626349343	1069.04994801549	142	1716.90549308283
525.826962511703	142.004650252251	869.322333146803	834.370418796371	251.359693689872	1073.73529198361	584.74981531534	151.986922974495	849.403998668215	1216.57271011123	165.566417322572	1525.07581250717	1192.65852649099	141.101082211157	2059.2829963944	1084.7707153794	154.117504983691	1544.67356546736	478.441326925764	136.04072345119	706.909962966401	1139.18573614272	175.739472983316	1510.69037322818	637.392564307862	149.665760488393	876.314071377674	962.752780703002	191.095493117547	1210.32939032033	1160.69168379026	190.214040748598	1894.52477355987	1272.08920318329	149.988250197392	1584.85381095215	951.699976890293	179.232719285566	1852.79845453638	1206.82057668991	138.178400051947	2140.65609323854	807.160564325516	221.762374007848	1542.51830619303	1069.3099773294	142	1716.78763341321
525.724669487338	142.001327222897	868.722077164414	834.75479663553	251.898119622694	1073.51837682715	584.664114049195	151.995349747749	848.705288728017	1216.4049992615	165.684091291949	1523.8131147033	1192.78724976688	141.113897378801	2058.06961351809	1084.82929112278	154.215233581732	1543.64375790793	478.38122294683	136.061156926116	706.287647111439	1138.8785456218	175.915317843702	1509.32047552795	637.313409662183	149.673839528235	876.29035516948	962.794481052072	191.219813076059	1210.6194670308	1160.83752231889	190.323549733009	1894.99603768095	1272.01335417614	149.995349747749	1585.14789347937	951.733855517147	179.335037677756	1852.81535521776	1207.12492042228	138.221667317876	2140.44975130395	807.608087153087	222.088207426049	1543.11116382172	1069.60894261203	142	1716.74114074853
525.714244473891	142	868.282744415259	835.257253800591	252.432243036677	1073.38135911102	584.638852215486	151.998672777103	848.126280512736	1216.36660419929	165.797581585912	1522.67058035192	1193.0494147634	141.11978694057	2057.33187110651	1085.08759642252	154.320471046923	1542.99470855276	478.414467107206	136.082403674188	705.919982938182	1138.94100794618	176.108386909201	1508.59170572631	637.331285897092	149.684179205327	876.462170477918	962.95107280795	191.357039244078	1211.14469039208	1161.05584821271	190.445420393414	1895.64970032115	1272.01327819905	149.998672777103	1585.64391557584	951.875086164194	179.445332480036	1853.03173801508	1207.57006987912	138.263435454253	2140.66721983228	808.118939071502	222.441573869534	1543.92837569814	1069.88910183869	142	1716.73545200558
525.788500921992	142	868.026030382729	835.864308477605	252.94926375371	1073.3549931614	584.668349358593	152	847.69773692187	1216.45817194126	165.901173553277	1521.71276419614	1193.36952876282	141.118547631051	2057.0734397688	1085.45851923739	154.429020338555	1542.71300975645	478.513273673969	136.101082211157	705.80898506903	1139.2599599574	176.303360739293	1508.4264368115	637.410942863926	149.694983576983	876.771510456616	963.150472938743	191.49807293272	1211.73663496714	1161.27270652249	190.576957136592	1896.33886780569	1272.01689839795	150	1586.1690535782	952.078222910847	179.559317772215	1853.40943043053	1208.06127743304	138.302295374257	2141.20087421749	808.657624386749	222.810536639507	1544.94731285136	1070.10450484101	142	1716.75445669993
525.931992174276	142	867.957636083324	836.556603534245	253.438839155253	1073.46692786202	584.740799451165	152	847.4358583977	1216.66172792099	165.991490050968	1520.98540777795	1193.67803901212	141.112832013765	2057.26774499744	1085.85749908807	154.537202100069	1542.76610463224	478.649270846854	136.113897378801	705.938375378787	1139.70807663305	176.488749710543	1508.71410067978	637.520381693838	149.704638872699	877.159395214757	963.332809860228	191.632403786447	1212.24144440681	1161.43215586377	190.714633737349	1896.9385330025	1271.9758469363	150	1586.5804135001	952.296923671911	179.672061872601	1853.90176952453	1208.51622904589	138.338889763857	2141.93108250208	809.195320270094	223.180831439551	1546.14004432	1070.22680479441	142	1716.79504881612
526.123269445065	142	868.062106085439	837.30764697216	253.894065296195	1073.73253954376	584.840088188924	152	847.333090817364	1216.94537039826	166.066410704167	1520.50019677565	1193.92296693828	141.106182896144	2057.83051215875	1086.21518331129	154.640306310128	1543.08302460451	478.798908808809	136.118459717673	706.267158700374	1140.1560308585	176.654072736984	1509.29603353279	637.635325293185	149.714112546688	877.569347298821	963.456545911855	191.750430226838	1212.53743940777	1161.5047533466	190.855112176799	1897.35804222941	1271.87030713937	150	1586.78053432885	952.492030748735	179.779310133782	1854.4377699545	1208.8770741161	138.374416750595	2142.72372239723	809.711145989876	223.536048600459	1547.45911749222	1070.24991090059	142	1716.84786912597
526.3320128305	142.001327222897	868.301683429472	838.080752856089	254.309728992506	1074.14636185727	584.942126862376	152	847.355535657544	1217.25479603071	166.124864132887	1520.22893538663	1194.0712854295	141.101880377306	2058.61834140871	1086.47650753956	154.734284163753	1543.54758595824	478.944625919313	136.113897378801	706.730889642229	1140.47478224677	176.79122814708	1509.95887097216	637.743133139473	149.72357543362	877.958195460478	963.494450060846	191.843536097477	1212.542789128	1161.48727883431	190.994022524852	1897.55322931977	1271.70232654184	150	1586.7232621663	952.633521158267	179.8760898261	1854.92879448894	1209.12114424183	138.411817172431	2143.44913325527	810.1906295764	223.857209048734	1548.83000875994	1070.19172181407	142	1716.89805233659
526.524307059846	142.004650252251	868.609890944009	838.832985538906	254.682154743817	1074.67032631013	585.018934991303	152	847.438328584559	1217.52121949547	166.166539618284	1520.08838975323	1194.10410226989	141.101880377306	2059.43819317635	1086.59598992485	154.814932899984	1544.000488559	479.075643150519	136.101082211157	707.25059442443	1140.53797467734	176.894065296195	1510.43751503984	637.838915418534	149.733669231455	878.286417520976	963.424295833273	191.9071423217	1212.19974939171	1161.39468321429	191.125833322549	1897.49841083369	1271.48034972667	150	1586.38556211724	952.698390531524	179.958493500288	1855.26354420232	1209.25360503869	138.451472337615	2143.98506975174	810.61949312054	224.125639344147	1550.1434003192	1070.08301405562	142	1716.91206404138
526.665307868933	142.011749802608	868.897383866444	839.514798960241	255.007962674996	1075.23356664387	585.040270831729	152	847.492093905757	1217.66826061397	166.191650800738	1519.95377125754	1194.00806254424	141.106182896144	2060.06193267759	1086.53295041221	154.880392344938	1544.24781747265	479.183537636722	136.082403674188	707.737050408507	1140.22628158125	176.957340000678	1510.42559513116	637.918903787114	149.743513910331	878.516575212123	963.213676479733	191.939438999636	1211.45823355185	1161.24235879686	191.243859762939	1897.17544860315	1271.19722906657	150	1585.74907038791	952.668866781821	180.023952945243	1855.33404915796	1209.29813030456	138.492351753212	2144.24739328061	810.980231131074	224.32367470487	1551.27219630744	1069.9596988107	142	1716.85275328255
526.728071682577	142.023779221956	869.062155114902	840.077370626662	255.284628109874	1075.73539219433	584.983342221437	152	847.417391282357	1217.63056766499	166.200837199416	1519.66772471839	1193.76949352124	141.112832013765	2060.25715639499	1086.24789387256	154.929519851706	1544.08720686134	479.261649091894	136.061156926116	708.105153745004	1139.43709621634	176.977345760543	1509.61673943756	637.978716265306	149.751857780966	878.604049579085	962.819488129813	191.940766222532	1210.25869175108	1161.04005855757	191.340812912506	1896.54309353682	1270.82733163238	150	1584.77354441352	952.531907812688	180.071325514053	1855.04293263468	1209.28710764414	138.530530264773	2144.18811786798	811.24934338873	224.439951719898	1552.07874705461	1069.84809957277	142	1716.67369306915
526.696694708631	142.04072345119	869.008679017282	840.4810553137	255.510685859967	1076.06693701639	584.836857810529	152	847.127847314424	1217.36577235735	166.196301052989	1519.07968010795	1193.37279232592	141.118547631051	2059.83372632467	1085.70893658215	154.961816529642	1543.34896364106	479.301307781473	136.04072345119	708.284183293999	1138.11095449874	176.952783224027	1507.76656666121	638.007443987643	149.755792769687	878.499956627335	962.191661000831	191.911792573951	1208.5366400176	1160.78497646579	191.409865506671	1895.53807717094	1270.32761385562	150	1583.39732758426	952.273818204822	180.100820353295	1854.32501888683	1209.24216687708	138.559774033212	2143.80177236612	811.399094935142	224.471012922223	1552.44378744078	1069.75446477269	142	1716.33208251013
526.573502180036	142.061156926116	868.671131655227	840.703804983545	255.686002022745	1076.13452751874	584.60790912939	152	846.574103770569	1216.87035009448	166.179616643789	1518.08441744633	1192.80962132815	141.11978694057	2058.6920746585	1084.9070088103	154.978949692891	1541.94394421611	479.294120248164	136.023779221956	708.231576137672	1136.2523379298	176.886691691319	1504.76594763288	637.989271769799	149.75498673745	878.157261662156	961.290900799134	191.855285900085	1206.24341571862	1160.46476938851	191.446009463534	1894.09108248796	1269.6559446348	150	1581.560917003	951.886484677958	180.113809465422	1853.15150324243	1209.17334290423	138.572996285693	2143.11228785502	811.402082648037	224.423731187761	1552.28087349002	1069.66395344619	142	1715.78517170749
526.373958214557	142.082403674188	868.032849243885	840.744474520974	255.813779400373	1075.88453540517	584.319727115512	152	845.760748472545	1216.17767602356	166.15462082999	1516.65157533494	1192.08577631692	141.113897378801	2056.84797638219	1083.8666660209	154.982272722244	1539.88807924522	479.233482078973	136.011749802608	707.936936911387	1133.94806323279	176.785697393541	1500.68871053807	637.907802149743	149.750256503551	877.549160325252	960.108859359973	191.774209448794	1203.38775832052	1160.06474454634	191.447336686431	1892.16302741514	1268.78892303129	150	1579.24958688029	951.36875320037	180.112570155904	1851.54527718457	1209.07630208025	138.56659660808	2142.16958825546	811.237022478789	224.314384806978	1551.55713726615	1069.54383526735	142	1715.00132364666
526.124864132887	142.101082211157	867.127702694431	840.625066415434	255.900042771343	1075.31256630548	584.005336746313	152	844.743743698647	1215.3519226376	166.124861433113	1514.83087627217	1191.22768972298	141.101082211157	2054.45144290574	1082.65065811733	154.974893555147	1537.3231442049	479.118467362563	136.004650252251	707.428814884062	1131.36065402029	176.660312069993	1495.81024037944	637.751573791102	149.743607385931	876.679370141688	958.682913321942	191.673127237637	1200.06289935966	1159.57967719219	191.415842981819	1889.77245498966	1267.74270920423	150	1576.52342010989	950.734276059552	180.101082211157	1849.57421448183	1208.94290824772	138.537975500085	2141.03903270299	810.899477848331	224.166445101651	1550.29797563493	1069.35651912415	142	1713.96278834468
525.8563376621	142.1138973788	866.036810195809	840.384124319133	255.952516025141	1074.46718239789	583.699808801089	152	843.619216999371	1214.47066424086	166.094153476797	1512.74590243507	1190.28286561534	141.083730897085	2051.75319759948	1081.35598700232	154.95927654881	1534.4877353591	478.954349587109	136.001327222897	706.766488155347	1128.70614720252	176.523173815352	1490.56465321268	637.518774010514	149.739646706602	875.593562282003	957.096985308214	191.559229858837	1196.45612973353	1159.01529126969	191.359867413159	1887.01474695254	1266.57101881367	150	1573.53338822916	950.016243201021	180.083730897085	1847.35176567912	1208.77299837038	138.491492069715	2139.80030916835	810.405117658907	224.004457522417	1548.58949042989	1069.07572392226	142	1712.67503620644
525.601665390067	142.118459717673	864.870810462979	840.07427116982	255.980945499347	1073.43568362936	583.43511547196	152	842.499546966794	1213.61893242524	166.065807178367	1510.56120407819	1189.3143494218	141.065807178367	2049.07670541663	1080.09622930209	154.937515850987	1531.68369971575	478.755530911825	136	706.036659806498	1126.214361463	176.386702465582	1485.47545923751	637.221674962766	149.742536458673	874.374145603366	955.471019765418	191.440770141163	1192.82956077533	1158.39526367344	191.290016514902	1884.05299553512	1265.3621317283	150	1570.49695593728	949.267419022828	180.065807178367	1845.02937498841	1208.58294491156	138.433582677428	2138.55111608811	809.794579810687	223.850844743864	1546.57249442975	1068.69734079217	142	1711.17706917376
525.38912113689	142.1138973788	863.742375173208	839.750988067635	255.994022524852	1072.32059941961	583.234517462354	152	841.485729815933	1212.87320837241	166.042050674087	1508.44553072875	1188.3838566702	141.052473253798	2046.74723824622	1078.9755575962	154.911618850664	1529.21060755276	478.541328857794	136	705.337190784024	1124.08121846054	176.261863750146	1481.0454861034	636.887080072857	149.754565878021	873.130035326147	953.937959523898	191.326872762363	1189.47367436898	1157.75846648897	191.219813076059	1881.09351485272	1264.21532168397	150	1567.659508068	948.553894598306	180.052473253798	1842.7712227601	1208.39940064006	138.374433906049	2137.3856377798	809.125657115901	223.72087992599	1544.41911386086	1068.24014356482	142	1709.53294802192
525.244611711109	142.101082211157	862.750126428779	839.470383255768	255.998672777103	1071.22033729593	583.112987054552	152	840.651698663416	1212.30083454142	166.023779221956	1506.54097003574	1187.54370888376	141.047558443912	2045.02974785363	1078.07156271704	154.881190511088	1527.30421392442	478.333536731573	136	704.76127021952	1122.43802191769	176.155416296366	1477.65607204732	636.551424759098	149.775719905542	871.972030598139	952.616879078073	191.225790551206	1186.64326929372	1157.15044126559	191.161188623826	1878.33837091073	1263.21800496612	150	1565.22601121386	947.944799856745	180.047558443912	1840.73651915283	1208.257841272	138.323427761099	2136.38736846276	808.46660903863	223.623131044009	1542.31220888752	1067.74273975527	142	1707.8262504215
525.188141892189	142.082403674188	861.963397373176	839.278093181379	256.001327222897	1070.2140663115	583.07837410883	152	840.035696627757	1211.95143322118	166.011749802608	1504.94691883886	1186.83345923376	141.053800476695	2044.10294334347	1077.42644201334	154.845923344385	1526.1094861788	478.153399672118	136	704.387219284411	1121.33922955213	176.070200531554	1475.51523853548	636.254924992171	149.80343708915	870.999575371329	951.588506044375	191.143386877018	1184.51402768876	1156.61792164865	191.121626179195	1875.96207422988	1262.42647050297	150	1563.33100373271	947.497352322847	180.052473253798	1839.05695229489	1208.18309937219	138.286433527571	2135.61641891482	807.881997812693	223.559839184072	1540.42254884631	1067.2502834068	142	1706.14819212043
525.233608246608	142.061156926116	861.416909981972	839.207918293857	256.005977475148	1069.35282371186	583.132254888223	152	839.645338612776	1211.85808571243	166.004650252251	1503.71241453608	1186.2742504986	141.070457430618	2044.02381589179	1077.04588087025	154.805287806573	1525.65626006706	478.017138207636	136	704.264080904157	1120.77002301443	176.005433300773	1474.63123821796	636.035925243364	149.832660177739	870.279775883189	950.884591022151	191.082229950902	1183.14263892928	1156.20124721361	191.102663425828	1874.07326840469	1261.85639337409	150	1561.99980119482	947.250413804249	180.065807178367	1837.81935519141	1208.18828452012	138.264902563101	2135.10201124395	807.424757481238	223.527114431936	1538.88590886658	1066.80504496984	142	1704.58260893489
525.387981036763	142.04072345119	861.117378926809	839.279781250333	256.017727277756	1068.66413798571	583.273011216099	152	839.469341767828	1212.03422400759	166.001327222897	1502.85209607784	1185.88110076781	141.09680792259	2044.74723230917	1076.91756623721	154.760443021937	1525.88232200796	477.937388979241	136	704.409547970329	1120.67440256402	175.957897574536	1474.85376801889	635.923702820873	149.857396171504	869.841545248403	950.488273573347	191.041506499712	1182.46537231284	1155.92908993249	191.100130951944	1872.70488892523	1261.4914141031	150	1561.15918102448	947.215205047189	180.083730897085	1837.05686542793	1208.26734531236	138.254751781934	2134.84457755386	807.12699762114	223.51833268436	1537.79148410736	1066.43479562773	142	1703.1956805562
525.650676790394	142.023779221956	861.048498832093	839.500346348227	256.041506499712	1068.15640158029	583.495667578866	152	839.49111079722	1212.47842495773	166	1502.35477561464	1185.67085600251	141.129511685363	2046.14950406416	1077.02873136019	154.714633737349	1526.666100955	477.922039033848	136	704.810704921083	1120.98902586999	175.923573800959	1475.93737184791	635.938220469676	149.874340400738	869.680715688142	950.353859143983	191.017727277756	1182.32914060115	1155.82312377727	191.108386909201	1871.82938352292	1261.30139149725	150	1560.67394747469	947.379165315756	180.102409434054	1836.75632346455	1208.40492087831	138.249298625933	2134.83058159839	806.999546538487	223.525828261146	1537.17895678056	1066.1540327415	142	1702.03528168788
526.01495837807	142.011749802608	861.179620253332	839.863173244909	256.083557173799	1067.82704512036	583.792158240433	152.001327222897	839.693152499668	1213.17111862665	166	1502.19619560319	1185.66267633002	141.166370632599	2048.06221772274	1077.37265610399	154.67295351435	1527.8645959469	477.97570512078	136	705.428281881507	1121.65826710625	175.90024501174	1477.61381012007	636.086485866483	149.882067301247	869.767022421273	950.425462325266	191.005977475148	1182.53741790565	1155.89832691855	191.119874853948	1871.37867250558	1261.26075794225	150	1560.39091797723	947.712506548128	180.119874853948	1836.86377135514	1208.58531429228	138.242199006003	2135.04067339431	807.038186477357	223.543291247304	1537.03931093168	1065.96573442899	142	1701.12661976064
526.468353646187	142.005977475148	861.479216972406	840.354041675601	256.149364352165	1067.67393991038	584.153170446477	152.005977475148	840.065299039121	1214.08478609085	166.001327222897	1502.35636956348	1185.87375839942	141.203395865745	2050.30668659249	1077.95277013743	154.641459809738	1529.34577229041	478.099239330996	136.001327222897	706.204915235853	1122.64146197871	175.8861026212	1479.65254722016	636.363736709144	149.881190511088	870.052788642267	950.655604130281	191.001327222897	1182.90603347931	1156.16145022226	191.130209520281	1871.26527059372	1261.36109134562	150	1560.18810769582	948.179370792524	180.136186995429	1837.31032346162	1208.80334364986	138.228842433331	2135.47125286793	807.228077173825	223.567856217556	1537.33209108466	1065.86889808502	142	1700.48474945555
526.992894842579	142.007304698044	861.918360578372	840.952126495645	256.243517828962	1067.6992827478	584.564692732917	152.017727277756	840.601552836059	1215.18013321172	166.005977475148	1502.8213461979	1186.31595507753	141.238351727076	2052.72447739333	1078.77605933609	154.62583724118	1531.01267126239	478.2896972986	136.005977475148	707.077187020702	1123.90989857246	175.882867505224	1481.89622099409	636.755377443654	149.874147670904	870.490924292204	951.021952259751	191	1183.31535113646	1156.61641178562	191.139003823653	1871.42071187353	1261.61828318289	150	1560.01625730963	948.742136135834	180.155403878512	1838.0272557899	1209.07031896564	138.210705301391	2136.13978863495	807.549155204909	223.600736358548	1537.99416583322	1065.86252683942	142	1700.11746853297
527.56714658189	142.016400054859	862.476633737309	841.632110698363	256.368379262075	1067.911034836	585.011675333555	152.040179276815	841.295885522327	1216.41222024596	166.016400054859	1503.58624797047	1186.98346770625	141.269298823577	2055.18497240862	1079.84228879063	154.62996630277	1532.80117639162	478.540048486438	136.017727277756	707.982611182697	1125.43297958935	175.892080096347	1484.25795373191	637.235575971758	149.863813004571	871.037667917778	951.517094976283	191.001327222897	1183.72762895757	1157.25349131134	191.147783137494	1871.79874367559	1262.05476572638	150	1559.90128989594	949.370514950944	180.183312162058	1838.96602352657	1209.41144953599	138.191995834377	2137.09984257871	807.979501300547	223.647325612798	1538.95760626388	1065.95022876445	142	1700.04160685609
528.166558624831	142.035529024564	863.143529104043	842.364702750353	256.523000092065	1068.32127512738	585.47514751721	152.076252475754	842.138287743846	1217.73060314101	166.035529024564	1504.6514637154	1187.85296680269	141.296432004933	2057.60067177189	1081.13817727251	154.654810889762	1534.681831993	478.8403476951	136.040179276815	708.87151624835	1127.17328246076	175.916645066599	1486.71262414535	637.774523361279	149.850573596635	871.665606665616	952.144905033085	191.004650252251	1184.18249658687	1158.05094428612	191.16128787806	1872.38828439948	1262.69067103669	150	1559.93424058523	950.039393528519	180.225790551206	1840.09502850834	1209.85944888321	138.181577854324	2138.41812987475	808.493066971901	223.713132791165	1540.14907346624	1066.13664390869	142	1700.27224110185
528.767809771181	142.064502673146	863.912287692629	843.122576095371	256.703943958751	1068.93581997081	585.938836218252	152.125659599262	843.111046750449	1219.08651319625	166.064502673146	1506.01033438286	1188.88410017143	141.320878131761	2059.92608441341	1082.6328908147	154.697966483604	1536.64627660333	479.179556630417	136.076252475754	709.71297225419	1129.08507048322	175.959102825524	1489.26994355972	638.342848714872	149.834415115697	872.361203297938	952.907610546992	191.013077025505	1184.76567603838	1158.97500555755	191.185067100016	1873.1998297575	1263.5321342308	150	1560.23070501727	950.728249375007	180.286947477323	1841.3887511513	1210.44251264883	138.1875995739	2140.1490914366	809.061099612518	223.802747687799	1541.49237796646	1066.42450180599	142	1700.81353098399
529.350437326068	142.101880377306	864.77816551332	843.879830240114	256.904895263991	1069.75082355915	586.387385011302	152.184284051494	844.189959957443	1220.43270666012	166.103207600203	1507.65051986555	1190.02744654446	141.344770684545	2062.14644982108	1084.28083726616	154.754029965642	1538.6902503692	479.546766896168	136.125659599262	710.492964144432	1131.11910317455	176.021073024785	1491.94607848192	638.912938462881	149.815715948506	873.124440470244	953.795527197759	191.029756697104	1185.57209363589	1159.98029706717	191.224035613248	1874.25650079959	1264.5617681433	150	1560.89540530962	951.419814350687	180.367596213553	1842.82290988655	1211.17381203081	138.217106878888	2142.31434596736	809.653083323224	223.917180978979	1542.91611946301	1066.80945857812	142	1701.65458435363
529.899259722821	142.143560600305	865.732394339389	844.613893460169	257.117482266015	1070.74469141603	586.808600091375	152.244642811461	845.346086540791	1221.72805414894	166.148210852555	1509.53983710332	1191.22987374372	141.370307972945	2064.27273757124	1086.02586064181	154.815715948506	1540.80710274359	479.932674719995	136.184284051494	711.213707573259	1133.22649697837	176.102663425828	1494.7535034511	639.463811210342	149.795282473579	873.961330937334	954.786365988171	191.059777951842	1186.66977682926	1161.01540725899	191.282390700671	1875.57751192326	1265.74002025735	150	1561.99095377668	952.103596770999	180.46454936312	1844.34955131406	1212.05423841972	138.272898562381	2144.86180734524	810.243383909213	224.055663611971	1544.34128291898	1067.28439190712	142	1702.74208794849
530.400837018861	142.183485885345	866.760637000339	845.306167864	257.334239511607	1071.88071409469	587.192694725491	152.298710487042	846.548188635697	1222.93418227443	166.19656291085	1511.63064686075	1192.44477648769	141.396985159342	2066.33396311906	1087.80770529354	154.874340400738	1542.98265724408	480.327402215019	136.244642811461	711.886167441746	1135.36676142909	176.20201132925	1497.69670641733	639.976355260469	149.775790663465	874.875860423061	955.844690164567	191.107313678079	1188.08511579228	1162.02409012744	191.361977546635	1877.16465488361	1267.00868116094	150.001327222897	1563.52145882802	952.775869287476	180.570979661445	1845.90066680813	1213.07286196593	138.352764955512	2147.67106468105	810.816859937551	224.212713525701	1545.69177724732	1067.8391698093	142	1703.98868934161
530.846581321336	142.214979589957	867.841871292926	845.944540088604	257.547480056228	1073.11155164241	587.532216577102	152.338089559881	847.765813220308	1224.02156985829	166.244736287061	1513.86304292063	1193.63644055141	141.423282003593	2068.36552312714	1089.57124274312	154.923747524246	1545.19575295831	480.722796219006	136.297383264146	712.523771778931	1137.50583080193	176.315122959755	1500.77011762845	640.434784828754	149.761241188087	875.863838011849	956.931093505323	191.176383427698	1189.80146056142	1162.9523115097	191.461820448273	1878.99962801963	1268.30211937593	150.004650252251	1565.43939263885	953.443135055672	180.677777489888	1847.39753907133	1214.21759734738	138.449982732287	2150.5783230346	811.371333246704	224.381516300952	1546.90125656016	1068.46836927187	142	1705.28290522951
531.228719399587	142.23368431937	868.950008386964	846.52271758318	257.751228392987	1074.38764822861	587.820614659134	152.358004277882	848.971583999844	1224.97028761036	166.290807825419	1516.1701261013	1194.78584302547	141.446944057274	2070.39706338083	1091.273980711	154.959820723185	1547.41684668239	481.111900817296	136.33343930763	713.137463457112	1139.62104376049	176.436119888913	1503.95750083173	640.824932433542	149.755893100918	876.910551331309	958.00402286847	191.268248310131	1191.76884787514	1163.74863594396	191.578708599781	1881.03693279738	1269.55141709399	150.011749802608	1567.65859398702	954.115087374218	180.775536671691	1848.76690116772	1215.47324258585	138.555994742861	2153.40963747543	811.913861793263	224.552018636392	1547.91981696003	1069.16635657681	142	1706.50869734312
531.542615145727	142.237007348724	870.049558761388	847.040942070221	257.941549271054	1075.65732310853	588.053757237865	152.357218529586	850.135362237848	1225.7708955833	166.333693299405	1518.47187032765	1195.88470109692	141.46507638204	2072.44780142137	1092.88415382288	154.982272722244	1549.61077030397	481.490612845819	136.346254475274	713.734754521292	1141.69058487803	176.55790263594	1507.22883495964	641.137226147219	149.762992651276	877.98526755771	959.027355194911	191.380411381197	1193.91102571506	1164.37638312971	191.706136206171	1883.19684855049	1270.69878516254	150.023779221956	1570.05959091945	954.803075373631	180.856613122982	1849.96137133505	1216.82599147095	138.660312069993	2156.02978985742	812.457615116163	224.714379745574	1548.72461699647	1069.93025682551	142	1707.57677167878
531.785070912851	142.226729392565	871.100734836444	847.506630477271	258.116351484081	1076.87532024892	588.231974277157	152.338106715335	851.225240936096	1226.43138241847	166.374962962797	1520.6856211858	1196.93318601479	141.476284710047	2074.50418244814	1094.38206988618	154.994022524852	1551.72808213622	481.857411289131	136.33343930763	714.314392417657	1143.68751041155	176.673127237637	1510.52338783163	641.369930711066	149.783693187146	879.048133245086	959.976304466871	191.507816629049	1196.1396010613	1164.81842621733	191.837491763956	1885.3823111737	1271.70665422758	150.04072345119	1572.51374765129	955.512570923661	180.917770049098	1850.97756093929	1218.25545856084	138.755530911825	2158.3729855314	813.01461996285	224.8592448511	1549.32963551182	1070.75317280811	142	1708.44658551716
531.961737016202	142.207265107301	872.064125174054	847.934813316153	258.276136516073	1078.00550072182	588.362494013958	152.307126960474	852.208899287341	1226.97772025925	166.416205170912	1522.73206335491	1197.93462938571	141.481128703487	2076.52597824704	1095.75464271556	155	1553.71166948311	482.213128872534	136.298710487042	714.869464011438	1145.57867172741	176.774209448794	1513.7547498338	641.530155707452	149.816514114655	880.050344009071	960.83678154001	191.641721446403	1198.36137741414	1165.08287549003	191.963143752539	1887.48097564066	1272.55999844687	150.061156926116	1574.88844037407	956.235610661314	180.958493500288	1851.85932624092	1219.72613937053	138.83536637491	2160.45279952593	813.590221596648	224.982371976478	1549.78814825771	1071.61734926541	142	1709.13693585818
532.084949355184	142.185611274391	872.904327290138	848.347521684799	258.422618623116	1079.02263043998	588.461308432545	152.27266520083	853.057626459453	1227.45342787149	166.459469308355	1524.54665697998	1198.88758602221	141.482022649101	2078.45725906755	1096.99213722394	155.005977475148	1555.50587633175	482.559118186749	136.250620286609	715.392123111288	1147.32418574287	176.857940345879	1516.82071157146	641.63616488031	149.856439399695	880.945997440702	961.610637289189	191.773144083758	1200.49096117612	1165.2081296383	192.075628032891	1889.3938415215	1273.27347767721	150.082403674188	1577.06910409784	956.954151295054	180.982272722244	1852.68640454033	1221.18723314482	138.897336574172	2162.34226811348	814.183213124238	225.084682156298	1550.18482038866	1072.49691904783	142	1709.71779601382
532.176106718248	142.167687555673	873.601215631714	848.77556270544	258.559229858836	1079.91791980614	588.555417013597	152.243141865278	853.755821344077	1227.92070682428	166.506489406152	1526.0939671854	1199.79392889418	141.482798097574	2080.23401295852	1098.0962919267	155.017727277756	1557.06590771494	482.896792399797	136.20201132925	715.873133249866	1148.89675073239	176.923747524246	1519.62231963493	641.713306514452	149.899446845591	881.697762659006	962.311355102922	191.894534735479	1202.4530084216	1165.25293769826	192.169605886517	1891.04295844794	1273.8841879851	150.102409434054	1578.9620815937	957.64172120919	180.995349747749	1853.55087710017	1222.57851724183	138.941549271054	2164.13967160254	814.785717411443	225.171095353902	1550.61845692964	1073.35900383011	142.001327222897	1710.28626549467
532.263951303888	142.158656149942	874.158798162823	849.256210932034	258.691278755685	1080.70540953219	588.678877831758	152.227006102016	854.31058148474	1228.44928088696	166.558013266994	1527.38682288031	1200.65794404605	141.489138092081	2081.81803573582	1099.07956226261	155.041506499712	1558.38012736741	483.225513841756	136.167166098974	716.31038669006	1150.29076439251	176.976220778044	1522.0965839076	641.792581403727	149.940147579105	882.295718804104	962.962086649499	192.00052701892	1204.20175797201	1165.29142340286	192.24220177535	1892.40581728337	1274.44594680891	150.118547631051	1580.52433224235	958.270163354579	181.003323029354	1854.52463893963	1223.84094156488	138.970243302896	2165.92380429621	815.385470124648	225.248564421499	1551.17551826969	1074.17319508738	142.005977475148	1710.93293602463
532.378500650402	142.160390457677	874.600450770803	849.826917615959	258.823618472186	1081.41425042629	588.867609642748	152.229119142782	854.749988846255	1229.10481496784	166.613437420369	1528.47380010399	1201.48797907987	141.505272814309	2083.21683374621	1099.96583920516	155.082229950902	1559.47941231869	483.542824241756	136.158482426656	716.711484431282	1151.52963904776	177.023779221956	1524.24325621363	641.904842106251	149.976220778044	882.75718229614	963.590681308955	192.088790933947	1205.71666103526	1165.39538115603	192.29351402259	1893.50958928926	1275.01751815561	150.130209520281	1581.75410369791	958.820516712846	181.013077025505	1855.63557742019	1224.93367199053	138.986922974495	2167.72041285584	815.97241543878	225.321960652251	1551.91046003356	1074.92074114039	142.017727277756	1711.71075896868
532.543683946055	142.171020884849	874.968011059568	850.517185053778	258.96007471496	1082.08709725793	589.148447758468	152.249905088721	855.119321278058	1229.92929852839	166.670848755528	1529.43666739887	1202.29570625096	141.535701153886	2084.48151157779	1100.78556946521	155.143386877018	1560.43097368298	483.845997813438	136.183566153833	717.09060161062	1152.65788167426	177.076252475754	1526.12380944988	642.075396206748	150.007379167097	883.123517903443	964.225772792328	192.161891403861	1207.00254640417	1165.62334430958	192.326934813562	1894.42343552056	1275.65386380009	150.137676600757	1582.69162141284	959.289228175001	181.028429474207	1856.85166365944	1225.84597681781	138.995349747749	2169.482410232	816.542600331346	225.392425948955	1552.82564066617	1075.60162297496	142.040179276815	1712.61351482497
532.772618709315	142.185594118937	875.309756433519	851.340186693781	259.101880377306	1082.76640313502	589.531931236157	152.286149311173	855.468834785927	1230.93071942728	166.727446471257	1530.36290480546	1203.0843320583	141.580730598683	2085.69823838018	1101.56124986746	155.225790551206	1561.32311382511	484.128261631293	136.243517828962	717.466710472978	1153.71987363217	177.142059654121	1527.84651586452	642.319925042257	150.034745976042	883.447367463027	964.895130098555	192.224209336535	1208.08875873273	1166.0094794455	192.347743546751	1895.23751989562	1276.39423850732	150.141805662347	1583.40613520184	959.694185548776	181.053800476695	1858.10127266953	1226.60544511764	138.998672777103	2171.11619217434	817.103399934128	225.459998365103	1553.88314164658	1076.24054062251	142.077579698651	1713.58837247674
533.061171243854	142.197628275886	875.667520707099	852.282225732901	259.247988558491	1083.48668926755	590.003961927897	152.331719455576	855.84063285682	1232.06845903882	166.780204079396	1531.32398388429	1203.8471660778	141.638114062708	2086.95328515486	1102.29721771692	155.326872762363	1562.23608033333	484.382641283451	136.332850237511	717.853027446509	1154.73839295389	177.225790551206	1529.52695047688	642.640235573005	150.059829703219	883.777005302238	965.618319486326	192.281584934473	1209.02093844265	1166.55857195148	192.359338356411	1896.03937916823	1277.25775133096	150.143560600305	1583.97933663705	960.067820140278	181.089586400323	1859.29214234958	1227.26752099554	139	2172.51041125487	817.671205382399	225.523156659897	1555.01420699297	1076.87696954352	142.13163707441	1714.55271030123
533.388661776232	142.202164422313	876.067803458397	853.304427618936	259.394069214826	1084.26324429404	590.531712260694	152.379344116276	856.254612373096	1233.26679980175	166.827651892254	1532.35595195689	1204.55827014526	141.702450657458	2088.30949778534	1102.97251314307	155.439442918267	1563.22056295107	484.599067009302	136.44209736406	718.254670724188	1155.69817427934	177.326872762363	1531.25344253438	643.02220380672	150.082403674188	884.1383694166	966.402422458083	192.339600016629	1209.84816183059	1167.24262620801	192.365227918181	1896.88221373727	1278.23280145394	150.144887823202	1584.48082285173	960.449444179557	181.136204150883	1860.34319402255	1227.90115380626	139	2173.57858308975	818.265160128062	225.58203989113	1556.13870752057	1077.55570964805	142.20201132925	1715.42589649159
533.72429716519	142.196301052989	876.51365745936	854.349525081135	259.534123413984	1085.09246531338	591.068358637997	152.421291400219	856.704857827361	1234.42796973472	166.86916109174	1533.4514185954	1205.18539293384	141.767822189035	2089.7850151814	1103.5486578454	155.553252383689	1564.28370337669	484.77060970999	136.55790263594	718.666708223211	1156.54897896159	177.439442918267	1533.05469287947	643.442979666816	150.101082211157	884.534485553451	967.241191843996	192.402065214106	1210.6148630285	1168.01352374711	192.367863412439	1897.78107619496	1279.28586182835	150.146455914597	1584.95858627846	960.867913363236	181.19066861148	1861.20141603706	1228.56289964089	139	2174.28275084489	818.896880156186	225.636954784464	1557.18475662058	1078.30774466304	142.284822088276	1716.15104874013
534.032637268877	142.179616643789	876.982212663591	855.351949441536	259.661377435029	1085.94746668755	591.567131271891	152.451372006383	857.158773476913	1235.45579865249	166.904519300307	1534.55663268136	1205.69261324256	141.82843764055	2091.3378027014	1103.97593684721	155.656727182778	1565.37761237664	484.892930803132	136.668476985386	719.074300809994	1157.21492939579	177.553252383689	1534.87709028727	643.872326683779	150.1138973788	884.943906189606	968.10479791846	192.469871257843	1211.34348452081	1168.80439207854	192.367990880537	1898.70284226195	1280.35488519998	150.149426403365	1585.42024333563	961.334050024694	181.248774306787	1861.84912874123	1229.27857098961	139	2174.63918407264	819.563154849737	225.689456534572	1558.09880165754	1079.13987436075	142.3736357399	1716.70850039221
534.2836419027	142.155948052887	877.429660385057	856.254875864365	259.769559196543	1086.78497088362	591.991284617276	152.466815427375	857.566658753747	1236.27692478899	166.93552004453	1535.58476422014	1206.05687385495	141.88074007835	2092.86912292866	1104.21213550643	155.738680424229	1566.4058091791	484.969095365508	136.761132423289	719.453427826212	1157.61862923232	177.655399959881	1536.58717144136	644.280065771001	150.118459717673	885.33148456301	968.943844246233	192.539224098971	1212.02253559749	1169.54468825895	192.366689850085	1899.57919990198	1281.36029345362	150.153988742237	1585.82902930637	961.82876534633	181.304478076902	1862.28924849327	1230.02808502675	139	2174.68711699686	820.241210829741	225.739470328384	1558.84440651055	1080.02356545313	142.459098906892	1717.10132015829
534.456095479117	142.129511685363	877.796202891015	857.018813335078	259.855285900085	1087.55076952408	592.322004299427	152.46586693751	857.871580831682	1236.85072169452	166.962599578164	1536.4294547133	1206.26853441585	141.921115796128	2094.24567122975	1104.22646348665	155.790783226939	1567.24056185798	485.006461728812	136.826856425878	719.778735384521	1157.69597792525	177.732702949082	1537.99168328635	644.638069022412	150.1138973788	885.653824400093	969.689904433864	192.603986730094	1212.59762294052	1170.16725967526	192.363994170883	1900.31595844382	1282.21134730057	150.159271082241	1586.10164558633	962.309605943598	181.350921882979	1862.53225692878	1230.75022063999	138.998672777103	2174.46360767199	820.893343666604	225.786088078944	1559.40507091355	1080.90356666085	142.530538526769	1717.34420105967
534.543592597384	142.107230502302	878.023744628302	857.632099966249	259.919097271995	1088.19435572854	592.559542219506	152.451478871296	858.027972678087	1237.17371661594	166.987970580652	1536.99643303897	1206.3355984968	141.947321598515	2095.31567004901	1104.00844322555	155.811239419542	1567.74113393062	485.01569147539	136.86064654305	720.022457368909	1157.40983912412	177.77438317208	1538.86558970623	644.919313730421	150.101082211157	885.869804375797	970.261208652635	192.654966682599	1212.98223913951	1170.61287425061	192.35891064135	1900.81782922392	1282.81200863856	150.16356636017	1586.12720018319	962.722882646602	181.381781066103	1862.58524811157	1231.36026620142	138.995349747749	2173.97891010152	821.479823353677	225.827651892254	1559.78406579669	1081.71112042614	142.578082119092	1717.45032818773
534.549009261118	142.094236652574	878.063992057734	858.109035375588	259.963143752539	1088.67826688511	592.719272627943	152.427693115658	858.010655679297	1237.27292634188	167.012029419348	1537.21794113845	1206.27876887561	141.957166277391	2095.9444096753	1103.56743805044	155.801855874479	1567.78102394367	485.005958468601	136.860480326711	720.160261654176	1156.75790024486	177.77438317208	1538.99614176366	645.098736375055	150.082403674188	885.943978566403	970.57505998904	192.684265015236	1213.06607561222	1170.8327980433	192.350825707606	1901.00190496957	1283.07150808298	150.164807348377	1585.78342901989	963.012682199388	181.392602105978	1862.43856687791	1231.76733073886	138.988250197392	2173.19878883569	821.966195931301	225.863277092192	1559.99468669234	1082.37905410661	142.596093751188	1717.41352174028
534.483390123776	142.095851150782	877.889460398633	858.484717346672	259.995349747749	1088.98973167772	592.825872385528	152.402871246343	857.821763544476	1237.19290522579	167.036073198939	1537.0728069607	1206.1265939346	141.948070920577	2096.04752398747	1102.92911912688	155.769030139796	1567.27546754523	484.982267160023	136.829388899762	720.177372099749	1155.77132030214	177.732702949082	1538.22353970077	645.154685767678	150.061156926116	885.850788764939	970.557504386113	192.685050763532	1212.73641382497	1170.797312356	192.338796288258	1900.81217158501	1282.91815174813	150.162239137273	1584.95904555955	963.138967732613	181.381781066103	1862.06749946561	1231.90290806987	138.976220778044	2172.05621549184	822.335309720566	225.891168220283	1560.05888289995	1082.86162406567	142.582732371342	1717.21305097253
534.358595652768	142.113365622279	877.497218580058	858.801892567651	260.022451999059	1089.14532511089	592.901333946673	152.382573403992	857.489470563314	1236.97741962663	167.058502480322	1536.58852459522	1205.90508018895	141.919097271995	2095.595568356	1102.12501823687	155.72059220595	1566.18726059835	484.944351109748	136.773332658634	720.065350349842	1154.49905592412	177.655399959881	1536.45975096624	645.070937715139	150.04072345119	885.577558079321	970.156370147279	192.653622304247	1211.89647063464	1170.49330738426	192.321510219514	1900.22939858541	1282.30745335924	150.15462082999	1583.57468370567	963.080112882031	181.350921882979	1861.44584572039	1231.73044569101	138.957949325913	2170.48226682387	822.585653353636	225.910934790338	1560.00922644775	1083.14179886489	142.542288329377	1716.82823641497
534.181330810843	142.146626730595	876.902398411209	859.097268546542	260.052473253798	1089.18552620846	592.956518959863	152.372944300721	857.057931309635	1236.65510342451	167.077753421938	1535.83188194841	1205.63260677172	141.873013177841	2094.62165812641	1101.18476219441	155.663652254801	1564.53028521211	484.885902814538	136.699708298286	719.825028922774	1152.99521025815	177.553252383689	1533.70079672346	644.840468207856	150.023779221956	885.122927440203	969.349434267662	192.590920004411	1210.48045877262	1169.92950074455	192.298186992516	1899.26899030398	1281.23102214551	150.142238939629	1581.59418242814	962.833133098572	181.304478076902	1860.54761682313	1231.24672561977	138.934192821633	2168.41831517778	822.730321717169	225.92268215921	1559.87765589132	1083.22781914558	142.482878128849	1716.24070360266
533.95046306732	142.19066861148	876.131019608666	859.387819680413	260.089586400323	1089.16272055322	592.984682024442	152.375046138574	856.572942686763	1236.22524637554	167.089332408549	1534.88888575352	1205.31300058434	141.814388725609	2093.20407197622	1100.12685445377	155.604336501333	1562.35904621899	484.798310541983	136.617151668977	719.46146497026	1151.30264310457	177.439442918267	1530.01771578452	644.467194015855	150.011749802608	884.492349399263	968.149507972849	192.500779129891	1208.46256554196	1169.13742884649	192.267886121038	1897.97322122946	1279.72319939369	150.125647181409	1579.0278758621	962.40866636029	181.248774306787	1859.36447100468	1230.47452775259	138.904519300307	2165.85565901698	822.786810225125	225.928414931951	1559.6971849839	1083.14681212071	142.41435919109	1715.45839525084
533.656962957264	142.238351727076	875.212336223975	859.667218669321	260.134876927986	1089.12882972229	592.965658009134	152.386712765405	856.072250390614	1235.66560018202	167.090118156844	1533.8487761072	1204.93821289723	141.750706936288	2091.44421198476	1098.95803704692	155.546528797016	1559.75819928581	484.671284165104	136.533713629372	718.982052126616	1149.44485915241	177.326872762363	1525.54438226769	643.965740740182	150.004650252251	883.698871404325	966.6066080073	192.391884474354	1205.87021507178	1168.16749807766	192.231379644816	1896.40799286582	1277.85760598591	150.105732463407	1575.93875886432	961.826474248609	181.19066861148	1857.9146980866	1229.45802232873	138.870488314637	2162.85418407216	822.772523003517	225.930859492457	1559.49930689553	1082.93460881051	142.347306237289	1714.52315436854
533.290857932319	142.280698854946	874.178819799875	859.908966235162	260.187345582126	1089.12619702625	592.87038138013	152.404609028846	855.583143085278	1234.94277408951	167.077736266483	1532.79832933753	1204.49865248255	141.690866933246	2089.45443948746	1097.68664149328	155.493226239507	1556.84031988668	484.499833836881	136.457170196022	718.397587189239	1147.44097210987	177.225790551206	1520.47021689607	643.361513852357	150.001327222897	882.762965964457	964.803911811449	192.273072285668	1202.78505154687	1167.08693235851	192.189463360493	1894.65208472973	1275.74335140744	150.083730897085	1572.43960307501	961.106732374335	181.136204150883	1856.24591026398	1228.25024413055	138.833629367401	2159.55306628654	822.694401217943	225.933663764886	1559.30811796551	1082.62236571716	142.289065255689	1713.51102077425
532.848294003899	142.310198431789	873.064884381836	860.08118015712	260.244329202223	1089.18006519841	592.67646049722	152.422706536494	855.120820854186	1234.03775043917	167.052740452684	1531.81492933077	1203.99189180724	141.642781470414	2087.35083401839	1096.33364116458	155.447963167121	1553.74650256501	484.287059938668	136.395222714436	717.728665211802	1145.31988417869	177.143386877018	1515.03305382353	642.689143349263	150	881.72030873099	962.850747319922	192.155333120589	1199.34716558878	1165.97311716449	192.146215046098	1892.79830670373	1273.51329252267	150.061156926116	1568.69059305088	960.273557328591	181.089586400323	1854.43162025609	1226.91890365812	138.796604134255	2156.16509468353	822.551895602648	225.938721101974	1559.13779183501	1082.23801713474	142.245796311072	1712.52534510709
532.33890476705	142.320624139986	871.91243780881	860.162348405323	260.304403607849	1089.30075106237	592.380834258485	152.435581542798	854.697263815717	1232.97161102496	167.018678536968	1530.96889526828	1203.43717225345	141.613022073536	2085.25076807132	1094.95018429076	155.412605028127	1550.64531047641	484.048534488306	136.35224626816	717.008714019721	1143.14305173835	177.082229950902	1509.51240236964	641.99061676445	150	880.621046520335	960.867680400672	192.047906177325	1195.7368284342	1164.90092850939	192.106530629557	1890.93956992027	1271.30494538926	150.04072345119	1564.88115570439	959.351914123223	181.053800476695	1852.56325507316	1225.53891596013	138.762975495821	2152.95434042081	822.335132542458	225.944615401344	1558.98965998021	1081.79871539079	142.221233774555	1711.6764730755
531.791623117311	142.311525654686	870.778732158379	860.154180223502	260.369432209257	1089.49025916611	592.00545476988	152.441487772787	854.329332134101	1231.8128772787	166.981321463032	1530.33404725784	1202.87391507457	141.605403766253	2083.27838606863	1093.61638815981	155.388815436775	1547.73164027126	483.811267936653	136.330190984543	716.290106164958	1141.01063212918	177.041506499712	1504.21618169049	641.313712581881	150	879.534675776687	958.976426187696	191.957368517789	1192.16602403271	1163.93814630082	192.076252475754	1889.1701787623	1269.24916337507	150.023779221956	1561.22062577522	958.372217426347	181.028429474207	1850.73163538962	1224.19402153548	138.73667865157	2150.18164827979	822.030766671494	225.946199523305	1558.84706751473	1081.31592780726	142.217089723434	1711.04836214734
531.252383111454	142.286676330094	869.735595140965	860.086233797661	260.443033367703	1089.74726957492	591.597216888232	152.438904572151	854.040564978479	1230.67313322944	166.947259547316	1529.97984145016	1202.35880166494	141.620213061666	2081.56568939442	1092.43388050648	155.376279885871	1545.20866881238	483.610139849214	136.326872762363	715.640184872831	1139.05096286465	177.017727277756	1499.46078169618	640.702268885301	150	878.540198289032	957.281844657772	191.886885669721	1188.85628587554	1163.12982358477	192.060635469417	1887.57974057826	1267.44754081018	150.011749802608	1557.91641319464	957.368478565934	181.013077025505	1849.01648852411	1222.96265791058	138.719968049926	2148.0571444206	821.626497098048	225.936041501229	1558.68285630671	1080.79165591177	142.232960859487	1710.67586877063
530.775405733627	142.253424559038	868.866144484702	860.008529004371	260.529837784561	1090.07138411253	591.216771800543	152.429806086851	853.85969026686	1229.68513805696	166.922263733517	1529.96850961129	1201.95036684978	141.654274977382	2080.22888529115	1091.50307893558	155.372442906766	1543.25637817058	483.480710736203	136.336369707827	715.129475215161	1137.3986174433	177.005977475148	1495.52766205509	640.189620990179	150	877.709156898841	955.860149317219	191.838110633966	1186.01286094346	1162.4931908255	192.061773758299	1886.23740140294	1265.9638603492	150.004650252251	1555.15140872731	956.383456246355	181.004650252251	1847.47522156011	1221.91385957103	138.713323669906	2146.68949419899	821.120475280087	225.90602024649	1558.4577194192	1080.22545213599	142.265715836247	1710.52490870785
530.41774168221	142.22287460669	868.261749367139	859.982055351781	260.632149005414	1090.46864850333	590.927391750449	152.416638448194	853.818894651383	1228.97761727215	166.909881843156	1530.35180672135	1201.69206181172	141.701818569705	2079.36909015448	1090.90081853457	155.372822466754	1542.01047381033	483.448946911734	136.351697690592	714.822106467059	1136.16449120606	177.001327222897	1492.6379827244	639.791965737182	150	877.093498234197	954.753992217611	191.809676422159	1183.80800851332	1162.01661455441	192.078884203872	1885.1913024563	1264.81908914321	150.001327222897	1553.0687377704	955.461068344406	181.001327222897	1846.13658342628	1221.09124499177	138.713754513453	2146.06295326078	820.520227315898	225.851962870731	1558.12915219395	1079.61271889543	142.310472707504	1710.49548568512
530.221812758997	142.204029853383	868.002016148845	860.054150348106	260.748181318036	1090.94662558145	590.773806826621	152.403656994638	853.942943181192	1228.63558357649	166.910667591451	1531.15456139741	1201.60615498203	141.754553460168	2079.04482145322	1090.66415807862	155.371884276711	1541.53381812877	483.527506365908	136.364784726353	714.759269410396	1135.41500773546	177	1490.9152219674	639.505857478115	149.998672777103	876.710866268938	953.969689439191	191.797835577687	1182.35398824756	1161.6648856434	192.107510119041	1884.45827946798	1263.99789898016	149.998672777103	1551.75135059919	954.644071496885	181	1845.00344175754	1220.50794010851	138.716499572399	2146.04205343211	819.844772544548	225.772882225897	1557.65809949579	1078.94983566935	142.360665579308	1710.44323401973
530.210552943846	142.203216580237	868.136451226234	860.25051367349	260.870104088957	1091.5045391034	590.776151055895	152.394152390603	854.236137325094	1228.68836391416	166.922246578062	1532.35718148217	1201.67812388653	141.805199893195	2079.24824595593	1090.77366021408	155.363196004734	1541.79494279731	483.707900324427	136.371622777988	714.946677998773	1135.148363026	177	1490.35561387833	639.307336056504	149.995349747749	876.537084922896	953.480073014368	191.79904869476	1181.67767008861	1161.38610463995	192.141805662347	1884.01021367605	1263.45216283094	149.995349747749	1551.19963675309	953.964845508716	181	1844.04291020896	1220.14096464482	138.715696668649	2146.38721513297	819.117813634132	225.673127237637	1557.00266924645	1078.23321752134	142.408476232575	1710.20057847584
530.379896972502	142.221140298956	868.670356941195	860.561238290682	260.985512575821	1092.12919222524	590.91955648105	152.389540796543	854.675732383911	1229.09527740173	166.938843073884	1533.89133475801	1201.86266963263	141.84698870942	2079.89911907056	1091.15868653273	155.341953994263	1542.66911806121	483.964480486	136.369056245573	715.350209044287	1135.28944113761	176.998672777103	1490.81669830953	639.159981335012	149.988250197392	876.506020570312	953.229953663304	191.808633553603	1181.70547526019	1161.12485523943	192.175054304917	1883.7708566927	1263.11578783705	149.988250197392	1551.32082821852	953.437969481789	181	1843.19859421363	1219.93423943055	138.706123788317	2146.80573204454	818.364746919894	225.559229858837	1556.12721386951	1077.46342818351	142.44680966751	1709.62018960175
530.69782052238	142.252638810742	869.54514836883	860.941004183742	261.077098444938	1092.77520433257	591.158031993919	152.389502138352	855.20090058558	1229.75115236985	166.953299073663	1535.62104702529	1202.08261447676	141.874762603203	2080.82069486725	1091.70004660616	155.306595855269	1543.93411184619	484.254809095533	136.359069109067	715.892576363884	1135.69258325762	176.994022524852	1492.00980896585	639.018484292528	149.974893555147	876.517904637179	953.143050505262	191.820272725157	1182.2615368198	1160.82825186562	192.200863391861	1883.61689239024	1262.90981267029	149.976220778044	1551.93140307928	953.058608566147	181	1842.40035235375	1219.80916247144	138.685284125083	2147.0075931479	817.607993553736	225.440770141163	1555.00874473438	1076.64552269841	142.470050543351	1708.60811113355
531.111295346769	142.289213541578	870.644873022125	861.322014988967	261.126780425903	1093.36843383471	591.428495904974	152.39190719203	855.720961105222	1230.51563268524	166.958493500288	1537.36121616062	1202.24605704724	141.887491895296	2081.76071920351	1092.25581289448	155.258785202002	1545.30363503239	484.529351979081	136.343721350074	716.462380981334	1136.16451747932	176.982272722244	1493.53252340523	638.837163385159	149.954626296559	876.452970483414	953.130043441885	191.82843764055	1183.08649110168	1160.45264036387	192.214979589957	1883.3884070813	1262.75216927217	149.95927654881	1552.77084755469	952.79719475619	181	1841.57936665118	1219.67086071407	138.652693762711	2146.76136035967	816.861480733258	225.326872762363	1553.64319034123	1075.78581936545	142.4753590758	1707.14901015428
531.556273282603	142.319411022913	871.81170693814	861.62539644232	261.118524676162	1093.81344304605	591.662973687104	152.391532003341	856.129396557183	1231.23926941145	166.94674369768	1538.9018059085	1202.26088995246	141.885042597189	2082.42602994113	1092.68555758505	155.202962588463	1546.47331358564	484.738645051486	136.326089713841	716.934384582274	1136.50082308002	176.958493500288	1494.92601467101	638.576383196537	149.927093271276	876.189725838309	953.099846543174	191.826962319332	1183.87663195577	1159.96887805232	192.214979589957	1882.91005663522	1262.5654462818	149.938843073884	1553.54159697778	952.61068750643	181	1840.68636900262	1219.43142619837	138.609964205242	2145.93863026121	816.134530660389	225.227117774103	1552.05715631833	1074.8974203255	142.463057857907	1705.31636759091
531.971289868	142.334766530527	872.879444741505	861.783810062878	261.043336962019	1094.01593090566	591.807187999431	152.384432383411	856.330542086896	1231.79849127219	166.914447019745	1540.05306543089	1202.05129897107	141.870037881899	2082.53496418464	1092.87687107725	155.146906347334	1547.17473594189	484.840437294218	136.310472707504	717.191514834799	1136.52336648946	176.917770049098	1495.75400748764	638.208669429432	149.892489880959	875.633060187222	952.969904818083	191.810282647733	1184.3418271984	1159.36418869116	192.199536168964	1882.03660968909	1262.28435132819	149.917596325812	1553.96492221835	952.449837422056	181	1839.70257981132	1219.024943766	138.561878742409	2144.53510424626	815.434048592317	225.149364352166	1550.31239640905	1073.9999806796	142.438237667279	1703.26103472583
532.308782184888	142.328876968758	873.704130856889	861.756540786945	260.899766061892	1093.90367388149	591.833340536735	152.365997843427	856.261049755724	1232.12615824791	166.859936152336	1540.68216284953	1201.57593540376	141.846444535045	2081.88011134161	1092.76996394084	155.098013173577	1547.22908254258	484.809368850984	136.29763725592	717.148217438713	1136.12521491912	176.857940345879	1495.69053233633	637.725450472428	149.853544085403	874.732221126617	952.681454494693	191.774637163855	1184.2556807878	1158.64384496439	192.169076829769	1880.6789100065	1261.86715390366	149.898917788843	1553.82933685767	952.267267506435	181	1838.64060102848	1218.41502954513	138.515008899959	2142.65604077301	814.765181408762	225.09863000576	1548.50074725847	1073.11655890142	142.411010744286	1701.17972154713
532.541994227258	142.301945603018	874.200350702679	861.534607222899	260.697624357255	1093.45562518988	591.741373828391	152.335304876642	855.913439846668	1232.21168720814	166.785959251402	1540.75497501264	1200.83023131088	141.818968219936	2080.3899214607	1092.36131131224	155.061773758299	1546.59132868242	484.637128315379	136.288415237487	716.772952039913	1135.28750293769	176.780186923941	1494.59559047247	637.139519480917	149.813195892475	873.492740804331	952.209097983377	191.718936522225	1183.49448485014	1157.83485052527	192.124078384591	1878.82625386894	1261.30342444921	149.886102621199	1553.02518912504	952.027437863506	180.998672777103	1837.52963028214	1217.60287004782	138.476299165728	2140.47218219718	814.134097512977	225.075708301379	1546.72537971004	1072.27485266188	142.390833960908	1699.26556719036
532.667217420752	142.257457979105	874.353572817601	861.141404415176	260.453121431745	1092.70790711308	591.555673230327	152.293775880451	855.336890753035	1232.0998667779	166.696906459593	1540.33903103493	1199.84932192511	141.791831910094	2078.14181477257	1091.7005820158	155.041506499712	1545.35269830953	484.333749817207	136.281330676661	716.088987160765	1134.08047775217	176.690854515393	1492.54396528848	636.482772235395	149.775357386182	871.978088032796	951.565953761194	191.643999928512	1182.06102192057	1156.97837784509	192.06600361933	1876.55254841095	1260.6150756609	149.881540282327	1551.56591933867	951.710845582364	180.995349747749	1836.40610986947	1216.62110828904	138.451996449246	2138.17202707979	813.546093437064	225.076252475754	1545.08725010615	1071.50194589104	142.386178971056	1697.66960996906
532.700216448602	142.20428981136	874.217503701235	860.624040341786	260.188822631658	1091.74796512877	591.313776730311	152.247652231577	854.626359066748	1231.86773297103	166.601280532923	1539.58440987185	1198.69737564047	141.768620355184	2075.35513788566	1090.87496431916	155.036856247461	1543.71908345362	483.924405501197	136.273342405525	715.170663999573	1132.64432211899	176.599409135651	1489.81311438476	635.801513940501	149.744296958853	870.299815406798	950.807905823427	191.554579606586	1180.08529084319	1156.13031083314	191.99665425297	1874.012385625	1259.85820648857	149.886102621199	1549.58862706452	951.313424037201	180.988250197392	1835.28688585714	1215.52477438464	138.444896898888	2135.89643022885	813.006603955837	225.090130574698	1543.65436970906	1070.81792183262	142.399540350902	1696.45524235805
532.668143614554	142.151556599585	873.89887216507	860.042295204089	259.926281898014	1090.69687614582	591.055384647448	152.203745636985	853.899719103446	1231.60224610904	166.50657731953	1538.69090742619	1197.45783160471	141.748164162582	2072.34541182253	1089.98951726897	155.045373703441	1541.96817631501	483.4448166304	136.262108231356	714.126786481646	1131.15698593958	176.517022616918	1486.82524219539	635.14726748023	149.723863483927	868.595966007253	950.020485805758	191.456820424783	1177.80304834055	1155.34798301098	191.919714104178	1871.41084094413	1259.11176988007	149.898917788843	1547.32576038231	950.850467841125	180.976220778044	1834.17385172757	1214.38337776293	138.453847166669	2133.73039663661	812.519594331663	225.104708546387	1542.45902149736	1070.23934241952	142.426627750623	1695.60258660369
532.606775499618	142.108435753289	873.525979603288	859.458844501016	259.684287970126	1089.6801964481	590.81475296316	152.170405952551	853.269265576395	1231.38547821873	166.421026239159	1537.85798967195	1196.22073631378	141.728656459845	2069.45479355618	1089.15082059498	155.062484149013	1540.38856629248	482.935323603567	136.245970034358	713.076730019239	1129.80139964574	176.452532361625	1484.05712958966	634.569874934061	149.715405711053	867.013440958786	949.310630244529	191.358366466975	1175.52245302898	1154.68654794131	191.840822393359	1868.97896872282	1258.46594064744	149.917596325812	1545.07553746802	950.351836887529	180.95927654881	1833.0677235827	1213.27398468618	138.475612671666	2131.71869754427	812.087629696785	225.107233409591	1541.50307247064	1069.77467800616	142.458671142206	1695.03295747205
532.551022481434	142.080902728005	873.22266522738	858.928033526508	259.476237114528	1088.80553982575	590.612708326356	152.154089073469	852.822390313344	1231.27698262749	166.350651984319	1537.25055281864	1195.07707873428	141.705338040021	2066.98730514501	1088.4595383357	155.082403674188	1539.22803039405	482.439100984289	136.224209336535	712.131743712279	1128.74207366743	176.411401825598	1481.94746100589	634.113442890816	149.719213231676	865.688715740469	948.786606749765	191.267043059144	1173.57272304511	1154.19181249362	191.767106991147	1866.94436077666	1258.01177285811	149.938843073884	1543.15188845969	949.857713860761	180.938843073884	1831.97519069394	1212.2742483921	138.505372068543	2129.89209421096	811.712917784845	225.087992767798	1540.76437236499	1069.42856665046	142.482977383082	1694.64253384865
532.534149231321	142.070480148294	873.081080190731	858.495633475492	259.309347725005	1088.14349190852	590.460867244334	152.155680854001	852.602590815411	1231.31744122616	166.298007707008	1536.96741216308	1194.10625965163	141.674454460534	2065.15945300044	1087.99721476548	155.101082211157	1538.6570353205	481.998553367464	136.198833526873	711.38084978353	1128.10424815243	176.394007163627	1480.82039802401	633.811181244824	149.732547156245	864.735624139159	948.540143286809	191.191044575164	1172.2545094735	1153.8943587926	191.707266988105	1865.50127664722	1257.82200328626	149.95927654881	1541.83989551564	949.412675148416	180.917596325812	1830.93393252569	1211.45875550837	138.537983110764	2128.30847357415	811.398232355749	225.042095569832	1540.22081217318	1069.2030971706	142.489387360518	1694.35060706629
532.583628943064	142.074233951621	873.151480664183	858.193771096143	259.18489337673	1087.72266547331	590.362234652334	152.171990074511	852.60866202949	1231.5308036621	166.261846594691	1537.03611636891	1193.36803333849	141.634078742756	2064.06631681517	1087.8211626075	155.113897378801	1538.74141960415	481.649670842426	136.172260194368	710.879203580658	1127.95617338337	176.397340492803	1480.83140026565	633.685775637336	149.751578164226	864.23133661377	948.628382539434	191.137334932817	1171.78273398972	1153.80624080997	191.667887915267	1864.78098714489	1257.93910799014	149.976220778044	1541.34318230665	949.060082157318	180.898917788843	1830.01702920901	1210.8917436727	138.570740521259	2127.07728806151	811.146657888956	224.96865978436	1539.86348430992	1069.09798891823	142.471115908387	1694.12926212777
532.71983316352	142.087053926439	873.434401931358	858.039808615923	259.099957228657	1087.52665103947	590.317781156525	152.19656291085	852.798490312088	1231.92698821922	166.237807552701	1537.41437448507	1192.89961725888	141.585126859159	2063.69098163743	1087.95954233758	155.118459717673	1539.44963514945	481.421508554707	136.146977105258	710.650475255789	1128.30914855169	176.415125084157	1481.95875834489	633.748306581979	149.772472441285	864.214009377651	949.063609134048	191.110659425108	1172.25734708836	1153.91897769559	191.653745524726	1864.83622055744	1258.36905224475	149.988250197392	1541.75813999284	948.829507896061	180.8861026212	1829.32147862023	1210.61481865225	138.601687617761	2126.33863736219	810.959544206107	224.871439573849	1539.69946856075	1069.10528222304	142.427592784427	1694.00386329031
532.955392966448	142.102409434054	873.892980181832	858.038512830785	259.047483974859	1087.50748296724	590.329559337979	152.219629842208	853.104277460632	1232.5088178071	166.219891700069	1538.01294165575	1192.71012652969	141.532007673444	2063.92089519177	1088.4067657904	155.113897378801	1540.66568802635	481.332195942864	136.12590903927	710.689532925602	1129.11483748851	176.440234228784	1484.02317662953	633.994143954887	149.792387159287	864.678338569924	949.808480139861	191.114435946112	1173.65366304223	1154.20234586572	191.66656069237	1865.64246349191	1259.07354573671	149.995349747749	1543.06553612099	948.736615968122	180.88021305943	1828.95004033763	1210.64436740525	138.629692027055	2126.23722984502	810.838424546451	224.756066824205	1539.75162102616	1069.21177836575	142.363190442512	1694.03922056386
533.292162159064	142.1138973788	874.464445490524	858.18153605824	259.017727277756	1087.59719702946	590.402988717865	152.23368431937	853.45082534594	1233.27476245931	166.202278528136	1538.7210685553	1192.78307877934	141.480166369456	2064.58034889163	1089.12468985799	155.101082211157	1542.21932713517	481.386497246034	136.110833148395	710.966563012134	1130.27812174377	176.46507638204	1486.73159308175	634.403763080463	149.81008620677	865.573833882808	950.78375035931	191.148037129269	1175.82581792096	1154.6085558652	191.702616735854	1867.09264818811	1259.97861008358	149.998672777103	1545.13393954356	948.785284782283	180.880125146052	1828.98625955712	1210.97253925068	138.655229315455	2126.88150910775	810.787029434682	224.631467248953	1540.04607636411	1069.40144430671	142.286693485548	1694.31111925787
533.725661660714	142.118459717673	875.084873555532	858.454001811548	259.001327222897	1087.72823583407	590.548844689695	152.232357096474	853.780464271027	1234.22397715169	166.180943866686	1539.44383821974	1193.07744504946	141.434380843577	2065.48257448566	1090.04762050172	155.082403674188	1543.92920837125	481.57374213779	136.103207600203	711.439438039232	1131.67489018623	176.482994538537	1489.74820707653	634.940638946807	149.826011060119	866.811624032671	951.880435110194	191.207988804398	1178.54334810503	1155.07654343335	191.755357188539	1869.02101470059	1260.98293964352	150	1547.75104114859	948.964490758803	180.882517733985	1829.46749818858	1211.56773387361	138.679121868239	2128.29880930318	810.809821348958	224.507904542427	1540.59600934898	1069.65664397998	142.208063273451	1694.8716400195
534.239750956465	142.1138973788	875.705868982972	858.831112341459	258.988250197392	1087.85262820345	590.775740160657	152.214979589957	854.067330679972	1235.34753838131	166.15462082999	1540.12986003605	1193.54369378337	141.396194603872	2066.44762006846	1091.10098723202	155.061156926116	1545.6271155296	481.872269069932	136.101880377306	712.054909855556	1133.17981470492	176.489285622923	1492.74345558243	635.557166438959	149.840728917759	868.274663718131	952.982277390252	191.286149311173	1181.52823214114	1155.54213854758	191.815715948505	1871.22647168249	1261.97948823545	150	1550.66092611108	949.258853718562	180.88074007835	1830.37537838678	1212.38807782844	138.703567995067	2130.42477848352	810.91664816626	224.396816998277	1541.39558251056	1069.96754138436	142.13740940187	1695.73336886927
534.814069775346	142.102409434054	876.30574602606	859.288822625571	258.970243302896	1087.95066135503	591.090138274017	152.183485885345	854.32504900589	1236.63404900844	166.12618865601	1540.78315535991	1194.12516341856	141.365470824506	2067.32859229661	1092.20787945342	155.04072345119	1547.18263759376	482.250394811945	136.106182896144	712.756175589003	1134.68322548887	176.48166731564	1495.44163378914	636.199214701712	149.856433837474	869.832629668082	953.983205694575	191.3736357399	1184.49751006178	1155.94709711046	191.874340400738	1873.49427310305	1262.86994040353	150	1553.5996961392	949.650363434757	180.86836292559	1831.62474045507	1213.38706830765	138.730701176423	2133.09531374089	811.116038067215	224.309218897463	1542.40500949295	1070.33306829033	142.080902728005	1696.85589929413
535.420840701443	142.087053926439	876.893239743461	859.799588891968	258.940222048158	1088.03794142552	591.488334384511	152.143560600305	854.600256422096	1238.05986666102	166.098803729047	1541.46220280146	1194.7750487069	141.338889763857	2068.0305309903	1093.31002838989	155.023779221956	1548.51976870548	482.673682156563	136.112832013765	713.489656211953	1136.10931268756	176.459098906892	1497.64980785193	636.817136626201	149.874352818591	871.358617278864	954.805439788962	191.459098906892	1187.19845323983	1156.25026550519	191.922420301349	1875.62476562984	1263.58579482913	150	1556.32723306184	950.119074274864	180.839668893748	1833.0792884625	1214.51721849604	138.761648272924	2136.07323522489	811.414188567464	224.252706661376	1543.55385088676	1070.7618613075	142.041506499712	1698.15558370351
536.030066150484	142.072906728724	877.490843120438	860.335961263545	258.891359099024	1088.14868786741	591.954454473157	152.101880377306	854.951197929628	1239.58507769668	166.077556980975	1542.24618902255	1195.46138966186	141.311241300346	2068.49065214119	1094.37253755864	155.011749802608	1549.59749881372	483.110041515928	136.118547631051	714.203416579805	1137.42047027647	176.422506951028	1499.25329944497	637.37432772659	149.894267536593	872.749821669087	955.409632355757	191.530538526769	1189.44310115862	1156.43376904827	191.953843248037	1877.46697940245	1264.0972364996	150	1558.66587297152	950.644031145397	180.791153678027	1834.57519244996	1215.73440885624	138.795276911358	2139.08882320877	811.810149809785	224.229375438421	1544.75341793973	1071.2687489663	142.017727277756	1699.52879303905
536.610440848226	142.064502673146	878.120964361144	860.871760423997	258.816311874257	1088.32114601735	592.461894917326	152.064502673146	855.423637013297	1241.15727381351	166.065829896043	1543.20416937074	1196.1645975181	141.279058022811	2068.6855129721	1095.38076400381	155.004650252251	1550.40893659005	483.533063389973	136.11978694057	714.853372285069	1138.60585573577	176.373618584445	1500.21044490988	637.850181662663	149.916269102915	873.937027055749	955.794159221662	191.578082119091	1191.12037331955	1156.5035649983	191.964545444489	1878.92835553932	1264.41439128987	150	1560.50811030522	951.200671437023	180.722534361145	1835.95048745181	1216.99393538647	138.828979115151	2141.88878188865	812.289593523178	224.234491378979	1545.90810759723	1071.86626603939	142.005977475148	1700.87548404352
537.13354200577	142.065829896043	878.790582349545	861.377482037197	258.709374159863	1088.57921426403	592.974820897339	152.035529024564	856.033249471723	1242.7089944452	166.064502673146	1544.36520067497	1196.87615587527	141.24008603481	2068.61073834443	1096.33417018938	155	1550.95736001334	483.925131285746	136.113897378801	715.403826862244	1139.66942021852	176.313783319004	1500.53258505879	638.245225025949	149.937515850987	874.890594842904	955.991130465918	191.594766528291	1192.20127673754	1156.48769524875	191.952516025141	1879.98259472262	1264.58297370805	150	1561.82230427212	951.762266091732	180.636983280774	1837.07936799076	1218.25243574572	138.857411289132	2144.2795752742	812.8274897622	224.255621983401	1546.93509641802	1072.56100061458	142.001327222897	1702.12424819194
537.574745690254	142.077556980975	879.481649206595	861.823532414895	258.565005093586	1088.9216827468	593.45421820038	152.016400054859	856.755200442111	1244.16293579819	166.072906728724	1545.70029099805	1197.58572624063	141.195235687953	2068.28049917611	1097.22750341558	154.994022524852	1551.24940310519	484.273328740003	136.101082211157	715.829287404699	1140.61142122675	176.245970034358	1500.27442350519	638.57649507616	149.954626296559	875.618269112658	956.056383640122	191.578082119091	1192.73160075629	1156.430492185	191.916442826201	1880.66821487534	1264.67160376051	150	1562.6469156927	952.295056977737	180.540525129423	1837.89003494619	1219.46324216576	138.874762603203	2146.15452311804	813.385195719964	224.275803900289	1547.77437310462	1073.34141721867	142	1703.24204415629
537.918023848501	142.098803729047	880.150163553711	862.181795629668	258.380196722945	1089.31567521753	593.865626311424	152.005977475148	857.526083575155	1245.4463358113	166.087053926439	1547.11973672874	1198.28002562742	141.148210852555	2067.72656441161	1098.04905682341	154.982272722244	1551.29037310239	484.571749310483	136.082403674188	716.11437971178	1141.4251759169	176.173861471783	1499.52592862666	638.871171619915	149.964470975436	876.156819608994	956.056539016521	191.530538526769	1192.81837536036	1156.38359333943	191.856613122982	1881.07207363244	1264.7600385287	150	1563.07625474204	952.763246780945	180.439442918267	1838.37375357512	1220.57789881652	138.875742092688	2147.49783864999	813.918026503433	224.276315801582	1548.39625228778	1074.17815719441	142	1704.23246855714
538.156770463757	142.12618865601	880.740858127328	862.42904728305	258.156440947633	1089.708484395	594.18518752011	152.001327222897	858.261308590055	1246.49655029675	166.102409434054	1548.49820051572	1198.93831380401	141.103207600203	2067.01017386683	1098.77314532274	154.959820723185	1551.09931442747	484.817379543158	136.062484149013	716.259908125873	1142.09388383459	176.101880377306	1498.42147298649	639.158844339541	149.964470975436	876.558270392248	956.060168381838	191.459098906892	1192.60960600931	1156.39439949351	191.774209448794	1881.30698675404	1264.91980459136	150	1563.23695583954	953.128911893761	180.339600016629	1838.57618971873	1221.54579572147	138.856613122982	2148.36991456796	814.378246681696	224.241391191347	1548.79867359219	1075.0211018319	142	1705.12239632883
538.295585087358	142.155948052887	881.199761988991	862.552771919234	257.898401939208	1090.0393783421	594.402295002423	152	858.873845998436	1247.276291725	166.113897378801	1549.70155874295	1199.53752478051	141.064502673146	2066.23443899182	1099.36962052876	154.923747524246	1550.7256672767	485.009294705066	136.045373703441	716.284358460032	1142.60337764388	176.035529024564	1497.14596475216	639.462634743405	149.954626296559	876.878490942967	956.129640705277	191.3736357399	1192.27880592997	1156.49851933864	191.673127237637	1881.49231333699	1265.20642414829	150	1563.27353605266	953.365819909853	180.24553445321	1838.58804784145	1222.32895305578	138.816237405205	2148.88844026192	814.7274270054	224.163803985748	1549.01256994382	1075.81275076001	142	1705.95273205883
538.350428432609	142.18426689604	881.494500208858	862.557277699556	257.615286099965	1090.25796026159	594.52137665965	152	859.298528671992	1247.77885533104	166.118459717673	1550.62223220966	1200.05872250572	141.035529024564	2065.54345675817	1099.81676952523	154.873013177841	1550.26207389479	485.149921997885	136.035529024564	716.223223129361	1142.95477378602	175.979022350699	1495.92961880036	639.794910458238	149.93618862809	877.169859740349	956.317686077217	191.284822088276	1192.01151994451	1156.71377358959	191.559229858837	1881.74403161586	1265.65260178306	150	1563.34012738971	953.457584214963	180.159532940102	1838.51316438595	1222.90440813062	138.756858134722	2149.19210069567	814.941504387747	224.045540571095	1549.08278679278	1076.49416375297	142	1706.7523639821
538.344927252377	142.208050855597	881.627885472936	862.463203736199	257.320211226889	1090.34339600044	594.557438537681	152	859.508357893991	1248.02772156912	166.113897378801	1551.21146162584	1200.4887742004	141.016400054859	2065.11116274973	1100.10643842199	154.811065696255	1549.84577056058	485.243469077536	136.035529024564	716.130529314232	1143.16828559314	175.935323603567	1495.02878986769	640.153532481241	149.911618850664	877.474843341871	956.658557295582	191.20201132925	1191.98800229545	1157.0336861444	191.440770141163	1882.15867366849	1266.26123190978	150	1563.58298193017	953.412967993602	180.08318672271	1838.45099906923	1223.28124693958	138.685418514846	2149.42316563292	815.017492364389	223.898541825159	1549.06096998465	1077.02625601746	142	1707.53370634857
