Light	Light	Light	Light	Light	Light	Light	Light	Light	Light	Light	Light	Light	Light	Light	Light	Light	Light	Light	Light	Light	Light	Light	Light	Light	Light	Light	Light	Light	Light	Light	Light	Light	Light	Light	Light	Light	Light	Light	Light	Light	Light	Light	Light	Light	Light	Light	Light
Optode1-730nm	Optode1-Ambient	Optode1-850nm	Optode2-730nm	Optode2-Ambient	Optode2-850nm	Optode3-730nm	Optode3-Ambient	Optode3-850nm	Optode4-730nm	Optode4-Ambient	Optode4-850nm	Optode5-730nm	Optode5-Ambient	Optode5-850nm	Optode6-730nm	Optode6-Ambient	Optode6-850nm	Optode7-730nm	Optode7-Ambient	Optode7-850nm	Optode8-730nm	Optode8-Ambient	Optode8-850nm	Optode9-730nm	Optode9-Ambient	Optode9-850nm	Optode10-730nm	Optode10-Ambient	Optode10-850nm	Optode11-730nm	Optode11-Ambient	Optode11-850nm	Optode12-730nm	Optode12-Ambient	Optode12-850nm	Optode13-730nm	Optode13-Ambient	Optode13-850nm	Optode14-730nm	Optode14-Ambient	Optode14-850nm	Optode15-730nm	Optode15-Ambient	Optode15-850nm	Optode16-730nm	Optode16-Ambient	Optode16-850nm
826.327689227832	154.298964478817	1367.41585202134	1353.16364077331	226.300706293499	1968.92939112331	843.868341891386	179	1467.94690477407	1442.24989805343	153.335020522302	1964.55742021974	994.508626683586	168.001327222897	1836.46045109627	1166.7560560303	142.103207600203	1728.18062599523	1020.45028897723	142	1971.79136856489	1198.80704542378	179.225790551206	1872.92624892841	814.064690061954	155.682356984215	1288.63608354238	1768.71559335527	194.221140298956	2566.53538352156	1013.64597668268	194.869702566341	1733.36032662051	1359.72120037933	141.886102621199	1809.91521216895	885.705888151774	183.361618738405	1888.05359955129	1330.27254715295	130.224035613248	2422.96986128825	891.058562538975	143	1983.95711701998	1043.6725116062	147.159532940102	1900.13234289865
826.723604684978	154.238067372735	1368.91818429223	1354.29250570921	226.327461832483	1971.5359569085	844.4335654524	178.983599945141	1469.53239370272	1442.30935675449	153.290807825419	1964.9885307906	994.240536047159	167.998672777103	1837.10301633077	1166.33843933139	142.143560600305	1728.44006684086	1020.3913554756	142	1972.68603028211	1198.45640153386	179.142059654121	1872.794818177	813.668061659354	155.603009278436	1288.31179082635	1768.21423175097	194.130309851513	2565.44387767516	1013.56077188766	194.838706559718	1733.67527652287	1359.11945092402	141.881540282327	1809.16879760992	885.770001229342	183.269220199567	1888.08312702885	1329.59620857173	130.185067100016	2422.01817276433	890.954285280837	143	1983.63440765702	1043.56898434851	147.149538075452	1899.81939823952
827.116666403971	154.184377527094	1370.71529811794	1355.28378933778	226.321222499474	1974.39889869441	844.989150525064	178.958493500288	1471.42318126611	1442.24703133364	153.244736287061	1965.78616262486	994.002733184239	167.994022524852	1837.71390401543	1166.07476689458	142.183485885345	1728.74938365567	1020.37858882982	141.998672777103	1973.6264592081	1198.20184717154	179.076252475754	1872.66172498024	813.346813159759	155.523173815352	1288.25773591969	1767.78186798942	194.052473253798	2564.66334733876	1013.48093102854	194.79789519515	1734.18363269952	1358.58355014061	141.8861026212	1808.76138247496	885.852389021539	183.184284051494	1888.34113708833	1328.9830247028	130.16128787806	2421.44195508624	890.870017045061	143	1983.59964189451	1043.524893737	147.144887823201	1899.80533281785
827.479494053967	154.136611235721	1372.74909972369	1356.07454609912	226.265573609221	1977.40564083719	845.507476806565	178.916442826201	1473.55008316033	1442.05212888581	153.19656291085	1966.92701722105	993.79516321166	167.982272722244	1838.27640095927	1165.95639002015	142.214979589957	1729.09405452394	1020.40633152402	141.994022524852	1974.56584107163	1198.04015473816	179.023779221956	1872.52341696804	813.133650228693	155.445332480036	1288.53730115106	1767.46407588895	193.981728547869	2564.31172601298	1013.42190572999	194.73780363407	1734.92431562795	1358.16310773759	141.897590565946	1808.80296701279	885.945324076181	183.101082211157	1888.89038970446	1328.47732642133	130.147783137494	2421.40834965545	890.818440240186	142.998672777103	1983.96761038327	1043.54276976613	147.141805662347	1900.176847019
827.790036812167	154.094153476796	1374.93090892992	1356.61694692754	226.143964585481	1980.41344134278	845.965182741591	178.850635647835	1475.81325955904	1441.74443864063	153.148210852555	1968.36394238253	993.608973966861	167.958493500288	1838.79350815191	1165.94916814328	142.232357096474	1729.46359571818	1020.46559566406	141.982272722244	1975.5006258881	1197.95070250641	178.974893555147	1872.39306317692	813.04858140944	155.371181634619	1289.17489896822	1767.27845732063	193.90908637678	2564.42894325683	1013.38966284307	194.648972051997	1735.89588175986	1357.88042742648	141.911618850664	1809.32470521656	886.034848941405	183.010689778597	1889.7711957624	1328.09758886494	130.139003823654	2422.04851311032	890.800022484081	142.994022524852	1984.8132420057	1043.60878946391	147.137676600757	1900.99323314819
828.037415621494	154.055384598656	1377.15565620771	1356.88266223074	225.940737705421	1983.2742510047	846.345667426526	178.756482171038	1478.09986818656	1441.37372176169	153.103207600203	1970.05348355016	993.435446888801	167.916442826201	1839.29889788787	1166.01512538547	142.232357096474	1729.87115748323	1020.56047714537	141.958493500288	1976.49063275336	1197.90986192016	178.917770049098	1872.3093148127	813.092918847579	155.301771879731	1290.15184810164	1767.21171621006	193.823616572302	2564.96089329909	1013.37817151746	194.523762885472	1737.05182142091	1357.73079469208	141.921115796128	1810.26311587759	886.09805541439	182.904418969075	1890.97725828426	1327.83072255356	130.130209520281	2423.40677645324	890.800070662271	142.982272722244	1986.13647251221	1043.6893167901	147.128882297384	1902.25151760182
828.214214614172	154.016944229234	1379.31499255696	1356.85471536567	225.643886197797	1985.85129723891	846.633771844599	178.631620737925	1480.30254088635	1440.99625441514	153.063175450249	1971.96322102142	993.276881371397	167.850635647834	1839.86446671525	1166.12958035708	142.214979589957	1730.37789197309	1020.71856418352	141.917770049098	1977.67121124775	1197.90501221231	178.838885845226	1872.3505556738	813.25222445617	155.237807552701	1291.41571064756	1767.23162399437	193.714024412114	2565.7850447698	1013.37503719549	194.357392252873	1738.32169657661	1357.69324286463	141.917770049098	1811.48219774843	886.107643845518	182.773947590932	1892.45114359831	1327.63193823706	130.118547631051	2425.42226072787	890.792473290245	142.958493500288	1987.85457263583	1043.73506566143	147.112570155904	1903.87679384414
828.316761088137	153.978405518516	1381.31026281427	1356.52949182119	225.246095006219	1988.03931893101	846.818946064936	178.475672685038	1482.33752127381	1440.65686857526	153.029551549417	1974.06348816096	993.148462494722	167.756482171038	1840.58822254435	1166.29006070552	142.182158662448	1731.08363753871	1020.99546729841	141.856613122982	1979.22607980086	1197.93742457755	178.726725473934	1872.61944480246	813.499742281966	155.179966415029	1292.88989889673	1767.30204460573	193.572104643944	2566.73864714523	1013.36780140816	194.149693868289	1739.62582403673	1357.74802604777	141.893990827142	1812.80909316844	886.038820343512	182.614155318031	1894.08788239391	1327.44282200292	130.102409434054	2427.92651674552	890.747431709969	142.917770049098	1989.80725001205	1043.69206446411	147.084682156298	1905.72235165863
828.337176256653	153.938843073884	1383.05352296648	1355.91143782011	224.747234069229	1989.76281742407	846.892627476455	178.291405788998	1484.14954241127	1440.36956519446	152.998672777103	1976.29884609456	993.07740045299	167.630293515028	1841.56038721435	1166.50943256335	142.137583125157	1732.09324031591	1021.46455810472	141.774209448794	1981.34212310232	1198.01874457636	178.57317000898	1873.20967691076	813.800476634167	155.129104600526	1294.48764929681	1767.39073521202	193.39355336519	2567.66423848886	1013.34525447481	193.904693023593	1740.89675533939	1357.88477301716	141.846190543271	1814.08114868681	885.873946615674	182.421889363798	1895.74520206088	1327.2052665483	130.082403674188	2430.66107544061	890.639047500541	142.856613122982	1991.77534828748	1043.51220248645	147.040897174477	1907.58277620481
828.264157031221	153.897140133209	1384.46862105086	1355.01652882317	224.154463485338	1990.97937347304	846.850996235486	178.083354933401	1485.71277672217	1440.10889185888	152.964470975436	1978.56391157767	993.091459272746	167.472349655684	1842.84023570409	1166.80053012673	142.08415309955	1733.47746081051	1022.19711752907	141.673127237637	1984.15670978949	1198.16039753989	178.374336482107	1874.17849610077	814.114551865819	155.084936148072	1296.12293152149	1767.47569913458	193.176708206221	2568.44624344921	1013.29888271294	193.62967858273	1742.0894059961	1358.10128430467	141.774209448794	1815.18862362153	885.604520952715	182.198486059499	1897.25883138714	1326.87894643641	130.061156926116	2433.32139950226	890.44825929059	142.774209448794	1993.51379075755	1043.1645534293	146.978926975215	1909.23147743532
828.085049979473	153.853544085403	1385.49049808397	1353.871680277	223.48225638576	1991.66987805368	846.693785037076	177.857411289132	1487.01726003246	1439.81877420169	152.919097271995	1980.694346909	993.210522575643	167.28430623864	1844.41788719078	1167.16318960639	142.022996173434	1735.21895184157	1023.22983644899	141.559229858837	1987.68240497927	1198.3623915359	178.131422416159	1875.50286832324	814.401070982102	155.047823001547	1297.7096819794	1767.53684980557	192.924607741595	2569.0130669806	1013.21924993998	193.334661714072	1743.16716566188	1358.39083824844	141.684877040245	1816.07783151161	885.22617530864	181.945416474783	1898.45655322745	1326.44339487448	130.039396228293	2435.60326843884	890.160700746058	142.673127237637	1994.78021031756	1042.64252992481	146.897336574172	1910.45790948525
827.786837652363	153.807218417328	1386.06501382536	1352.5113285791	222.747961922184	1991.82741258827	846.42406115032	177.619059562056	1488.05047642333	1439.4207467598	152.855285900085	1982.47586670594	993.432077305444	167.071325514053	1846.19869620782	1167.57415775656	141.953299073663	1737.20065154316	1024.5349879123	141.440770141163	1991.7535452392	1198.60457137441	177.849308424938	1877.07084639897	814.62017874512	155.015352448702	1299.15656367205	1767.54765740652	192.641257569341	2569.31317084756	1013.08986548821	193.027646425685	1744.08317930147	1358.72668892853	141.587659333043	1816.72334781932	884.729955642696	181.667149762489	1899.16613632153	1325.89162952086	130.017801746809	2437.23448471563	889.761027144843	142.55790263594	1995.35893138979	1041.96055663597	146.796661447853	1911.10043407709
827.35934032899	153.757630108427	1386.14270280359	1350.97171092914	221.972966655521	1991.44298580212	846.043626448023	177.3736357399	1488.77589441606	1438.82965563351	152.769559196543	1983.65577232316	993.71953914662	166.839139837001	1848.00689757172	1167.98001913046	141.871685954944	1739.20642118908	1025.99678573115	141.325545539466	1996.01007912397	1198.84126244295	177.535525105933	1878.6839644896	814.733720015465	154.983320328401	1300.36710923726	1767.46612454133	192.332129240188	2569.30054301219	1012.880347013	192.714540261749	1744.76628895942	1359.04776835912	141.493243394961	1817.10329221459	884.09869696179	181.367641109298	1899.23218161236	1325.22254508449	129.994022524852	2438.02109154312	889.229111629758	142.434792666016	1995.0892268812	1041.15393916619	146.678899565098	1911.08223735477
826.800127565351	153.702790459141	1385.68675443937	1349.28958988844	221.176193605154	1990.50740300543	845.55328516273	177.12618865601	1489.12628183077	1437.9700463185	152.661377435029	1983.98394216449	994.001503994927	166.595303057776	1849.60882381089	1168.29867056299	141.774209448794	1740.95760281995	1027.41113283251	141.221140298956	1999.92705024249	1199.00071143584	177.198050478351	1880.08993217723	814.70921583358	154.946199523305	1301.23862440503	1767.2357919253	192.002706197171	2568.90512805306	1012.54937292934	192.400046689974	1745.11022193854	1359.26044608632	141.411808910435	1817.1637404212	883.298239921577	181.052740452684	1898.52506892597	1324.42539275527	129.964470975436	2437.85122591014	888.534399401233	142.310472707504	1993.8782108814	1040.26712971947	146.547480056228	1910.41453432408
826.118685585686	153.640306310128	1384.68251417698	1347.5012163978	220.373106683152	1989.01559198723	844.953540059303	176.879788819138	1489.00723186484	1436.79551307083	152.534123413984	1983.26194249196	994.182116175668	166.34528944147	1850.75342310892	1168.43951871929	141.656727182778	1742.17086917669	1028.51453174504	141.130309851513	2002.89128199806	1199.00308687368	176.844596121488	1881.0279915336	814.518534804247	154.898663797069	1301.67179439906	1766.78064505697	191.658577762259	2568.02547408311	1012.04121689754	192.086626211378	1744.98507641678	1359.23732529256	141.348917676585	1816.80450589834	882.285467879736	180.727446471257	1896.96389076264	1323.4739786837	129.923747524246	2436.70732223727	887.642097339202	142.188934303745	1991.71974532992	1039.34490804102	146.406568339496	1909.19819116614
825.337421021163	153.568695804682	1383.15243502995	1345.64353467123	219.573512135329	1986.98706170424	844.246564711541	176.638114062709	1488.32467796916	1435.29754041953	152.394069214826	1981.38674905306	994.15646247402	166.094153476796	1851.22110723057	1168.31653537412	141.517723359125	1742.61671348787	1029.03298686111	141.052473253798	2004.32460674896	1198.77134603028	176.482450364162	1881.28130737424	814.145495404249	154.83536637491	1301.59176108717	1766.02700304685	191.30456599028	2566.5608438633	1011.30094292994	191.775790663465	1744.26981821992	1358.84793806261	141.305626014291	1815.90443445181	881.020164196221	180.398312382239	1894.5414247585	1322.33607230175	129.869690148487	2434.67047061282	886.526074832076	142.074233951621	1988.71022638579	1038.42785528438	146.262370089217	1907.60436683286
824.492479901399	153.486323130112	1381.17310380344	1343.75944618762	218.783908634655	1984.48891238777	843.442601824	176.4047196599	1487.02075296481	1433.51231617896	152.247988558491	1978.39515396643	993.839109270993	165.84537917001	1850.87220514641	1167.87607826664	141.359867413159	1742.17000534154	1028.75090780144	140.983055770766	2003.81286635405	1198.25707996652	176.118809488912	1880.72214190313	813.591419295479	154.755530911825	1300.97253074543	1764.92684698019	190.947269847138	2564.44510544387	1010.29143671151	191.469897450288	1742.89265861224	1357.98998390924	141.278531003891	1814.36132596694	879.484095029838	180.073448203325	1891.34937033389	1320.98331320017	129.802638923	2431.92379421668	885.182870424143	141.967272548091	1985.06085122335	1037.54964862385	146.1239101739	1905.85652994138
823.635090460481	153.393644974534	1378.90695166686	1341.90429927345	218.008964536726	1981.67969539241	842.56368892556	176.183312162058	1485.12703047609	1431.53011331236	152.103207600203	1974.52505816572	993.188786503429	165.601368446301	1849.68672513127	1167.12363897661	141.188136137596	1740.85487886814	1027.56833200671	140.915063851928	2001.21446478055	1197.46014549153	175.761334663686	1879.35091647207	812.879856362966	154.660312069993	1299.85811750188	1763.48237169934	190.592309585294	2561.70243160998	1009.00946025456	191.17156235945	1740.87181574157	1356.62702066083	141.261048428542	1812.14667824867	877.699435704799	179.758697373347	1887.58876655181	1319.41920155064	129.725600491435	2428.74729408749	883.65016877049	141.868189202304	1981.09258358075	1036.74208827338	145.999826276713	1904.20622137178
822.829390865728	153.293863793829	1376.6102752684	1340.15156320952	217.2567875843	1978.8222972955	841.649910534656	175.977801992715	1482.79683088314	1429.49602686169	151.966052190107	1970.22118996905	992.228653023666	165.364256028745	1847.80361761103	1166.13899100633	141.013077025505	1738.8841655753	1025.53839170194	140.841343850058	1996.73545440996	1196.44361890987	175.4185776961	1877.33026020716	812.06451870281	154.554667519964	1298.38271273171	1761.77755750054	190.247909282264	2558.50927573729	1007.50300862875	190.882867505224	1738.35175831407	1354.83008693651	141.245522035357	1809.38129592689	875.73818325919	179.460941979425	1883.57211453837	1317.69721578605	129.644166006909	2425.51824336215	882.013394333388	141.775790663465	1977.22623664291	1036.03787645545	145.898744065557	1902.91265647154
822.149482712656	153.192809107522	1374.62854299258	1338.59253366184	216.541627652652	1976.28697230574	840.758697403464	175.79099788519	1480.31202462463	1427.5984621342	151.842672972839	1966.11888807515	991.046899335534	165.136725341544	1845.5050051167	1165.07323621827	140.846270811759	1736.63735988445	1022.86520380715	140.756858134722	1990.90799688041	1195.33064561752	175.099957228657	1874.96980009699	811.228409552396	154.445332480036	1296.77563057376	1759.98347693569	189.921836793451	2555.23611345837	1005.87268413173	190.606620358096	1735.6174849152	1352.78675158798	141.225519403977	1806.38383721703	873.721540012438	179.183426267881	1879.70038354609	1315.9350893848	129.563897266542	2422.71002062328	880.403731110628	141.688334459362	1973.95253516069	1035.47900831608	145.826526909755	1902.2352962588
821.674676819397	153.098013173577	1373.35812285755	1337.33464520008	215.882896022335	1974.51057725745	839.962370215873	175.624082303222	1478.05294750938	1426.06138804389	151.738762730544	1962.96598256042	989.788142098598	164.922508435924	1843.19173568208	1164.1328373585	140.699910538684	1734.62514467387	1019.87132936945	140.660312069993	1984.51354299715	1194.29182593186	174.815126878386	1872.69645102224	810.477190907187	154.339687930007	1295.33903465728	1758.34640002718	189.624458266906	2552.42449423901	1004.26413446588	190.345665405154	1733.06042522355	1350.78841508492	141.197628275886	1803.66032013369	871.805488316389	178.928485911071	1876.41654566899	1314.31302144644	129.489111899636	2420.85004480787	878.982419018123	141.604336501333	1971.77583570834	1035.11655398293	145.785370181282	1902.41225503503
821.490247798087	153.017198221008	1373.19333298947	1336.5022944726	215.303917523893	1973.93957208045	839.345594767742	175.477626388625	1476.44062181414	1425.13312331539	151.659187087494	1961.51981705413	988.63068596542	164.723951397305	1841.32946865804	1163.54714379735	140.583612843806	1733.41732008668	1016.93623418485	140.554667519964	1978.4540584669	1193.52044843851	174.571717814222	1870.99772993649	809.925856164354	154.244469088175	1294.41398619158	1757.14568786422	189.364859791758	2550.72034740147	1002.84142452506	190.102235710767	1731.1297296146	1349.18279810345	141.162239137273	1801.84562101216	870.151045770734	178.697632194517	1874.14961782089	1313.04247227966	129.423418827092	2420.48221584883	877.910049549618	141.523173815352	1971.15661432683	1034.99968170861	145.773620378674	1903.6441834086
821.674628302063	152.956582769493	1374.45648243301	1336.21480192967	214.826140080033	1974.94804272	838.989577610393	175.350227744027	1475.85788962151	1425.05799802175	151.607511999845	1962.42875517097	987.753018093903	164.54467287651	1840.37155500587	1163.52449135585	140.504583412958	1733.5398360175	1014.42314971789	140.445332480036	1973.59184090849	1193.19582800658	174.375154903372	1870.33707485684	809.681442466825	154.163306402193	1294.33580381218	1756.64391050777	189.150431617086	2550.77462478784	1001.76162919705	189.879267362439	1730.26466719747	1348.31090870197	141.123127125378	1801.60565100152	868.902780692525	178.492816454895	1873.25224312487	1312.33980973013	129.368906280995	2422.09375225772	877.323571157199	141.446659702933	1972.44209116937	1035.17170756906	145.78634763294	1906.06793636957
822.289284175166	152.918396529788	1377.33600580688	1336.56980240993	214.464227950296	1977.76915138899	838.961488175082	175.238155286113	1476.58026321595	1426.04236616021	151.584157018181	1966.1274281417	987.308486276253	164.386388856344	1840.68808148958	1164.21898322101	140.463160089023	1735.38106990862	1012.62100368646	140.339687930007	1970.60808769724	1193.45576807422	174.226944050817	1871.07700084094	809.818565718273	154.098013173577	1295.36921133926	1757.02056163755	188.98394207149	2553.09085008794	1001.1405265629	189.67962056242	1730.80347438358	1348.42573145435	141.084936148072	1803.48660568196	868.15294462982	178.315734984764	1873.94082769058	1312.37039853891	129.326424763361	2426.02790813917	877.301781963065	141.37583188687	1975.80451594307	1035.64737064156	145.816514114655	1909.7253362877
823.364489261175	152.902502676058	1381.84756464334	1337.61748311174	214.224431832048	1982.44373970178	839.297946837321	175.137938458618	1478.72361526279	1428.21866612528	151.587938346359	1972.76173043996	987.396111014241	164.250446563322	1842.50755985847	1165.69812726828	140.455972555715	1739.12093708446	1011.69689776633	140.244469088175	1969.90111045132	1194.36682500499	174.122409227717	1873.41731682243	810.37092165304	154.046700926337	1297.66240354733	1758.33799744702	188.862688022072	2557.90369477739	1001.03479436553	189.505198345257	1732.92027939781	1349.64622723753	141.052473253798	1807.7781375019	867.933551638195	178.167166098974	1876.255004843	1313.21717508003	129.297904676003	2432.40464366708	877.855183283959	141.314848905236	1981.19803253266	1036.40877585744	145.856439399695	1914.54096401124
824.886155763429	152.904895263991	1387.8198565973	1339.34369068199	214.100954935431	1988.80411173262	839.994763991435	175.045025970028	1482.22250323664	1431.60761042883	151.612760215675	1982.15884365984	988.045111562548	164.135659976508	1845.87397405859	1167.92905174685	140.473761954243	1744.68695836987	1011.68015304585	140.16463362509	1971.53342432594	1195.91261631925	174.05325630232	1877.35442101625	811.312652757752	154.004650252251	1301.20688964467	1760.50921403819	188.77685549465	2565.09616019201	1001.42511035965	189.356629459467	1736.57592292772	1351.91600598383	141.028429474207	1814.41877441924	868.20394328026	178.046085994039	1880.04014850339	1314.84925152032	129.283181256141	2441.04844647548	878.91646674619	141.266237026907	1988.34175224202	1037.39688583144	145.896792399797	1920.30576907956
826.785861459882	152.918923548709	1394.90576713108	1341.66042975966	214.077585498086	1996.48116870357	841.002324840568	174.954974029972	1486.83319175533	1436.09244409733	151.649080816795	1993.82385257913	989.210616408967	164.040179276815	1850.63567507144	1170.77892235384	140.506587619353	1751.75996142334	1012.46905698383	140.102663425828	1975.24449702785	1197.99232420389	174.005977475148	1882.68041450221	812.563411640996	153.966376099168	1305.82230358894	1763.30935706444	188.711305145774	2574.18845226277	1002.21953858437	189.232890101564	1741.51088981388	1355.00859397166	141.011749802608	1822.96819911412	868.860630445428	177.947347460694	1884.9580279737	1317.11649513418	129.281846792335	2451.46016318803	880.351396780219	141.232439668827	1996.73770065527	1038.51522632485	145.930847074603	1926.68100736767
828.939836421724	152.938843073884	1402.61947747645	1344.40364737264	214.129713925761	2004.94841455829	842.224090908987	174.863388764279	1492.16324159833	1441.39930017564	151.685156656985	2006.97354795633	990.775750836859	163.959646999898	1856.44556724166	1174.02461599133	140.541835196866	1759.80168700669	1013.85525952887	140.058450728946	1980.48960195078	1200.42899208341	173.964470975436	1888.99480342908	813.992251458812	153.925766048379	1311.16553538002	1766.40511069032	188.648562267385	2584.39080178602	1003.26500479422	189.130309851513	1747.26640157265	1358.56152409004	141	1832.64920762894	869.757157354361	177.86365062214	1890.52890380629	1319.76882226532	129.291794170536	2462.84571310734	881.980802261406	141.214040748598	2005.72118183667	1039.64624202652	145.951393949931	1933.22828656622
831.171610965885	152.95927654881	1410.37955480495	1347.34316087327	214.226319607954	2013.56783126968	843.522725148579	174.767822189035	1497.71078081417	1447.110250106	151.708402270427	2020.59425510312	992.565701098213	163.887167986235	1862.7913606493	1177.37950753574	140.569512552596	1768.11555754648	1015.56166064121	140.029756697104	1986.53189841898	1202.99030526925	173.913119796848	1895.74846198064	815.434007640897	153.877417048997	1316.76800983334	1769.40248869406	188.571791034706	2594.72124216404	1004.36860595073	189.042050674087	1753.2481257195	1362.12813854035	140.988250197392	1842.46482728507	870.724697505271	177.785287608929	1896.19065600974	1322.48829109928	129.309145484607	2474.19545687596	883.60547111771	141.209390496348	2014.54011713014	1040.66457712383	145.953843248038	1939.45021923153
833.271613202625	152.976220778044	1417.5775687098	1350.20333464074	214.334760968306	2021.67157986691	844.735351495731	174.667499533729	1502.92993663548	1452.70009114138	151.708379552751	2033.55031118556	994.369199976597	163.816949695803	1869.04971739782	1180.52185725551	140.581941815872	1775.92647374091	1017.28826584143	140.013077025505	1992.55331947767	1205.41262747679	173.838885845226	1902.30326563531	816.708069182092	153.818015060839	1322.09243107996	1771.90770419126	188.467770161357	2604.15166345558	1005.32658398359	188.95927654881	1758.80925276968	1365.2487835125	140.971570525793	1851.35332120319	871.602447241913	177.70488280011	1901.37825937831	1324.94137624761	129.328609769871	2484.42468582061	885.038344635313	141.214712391071	2022.4547343534	1041.45891818666	145.935571795907	1944.85723830547
835.023452271928	152.988250197392	1423.63953090174	1352.69610427085	214.426398051409	2028.62774777485	845.694347365947	174.563880111087	1507.29437620776	1457.61017382317	151.679278436071	2044.71513879838	995.968680667455	163.74280365756	1874.5587744992	1183.13801584891	140.575131219514	1782.47206044016	1018.75545016633	140.004650252251	1997.76808186764	1207.43278023237	173.732702949082	1908.00123845866	817.639994498529	153.748693219329	1326.60474758326	1773.57794681622	188.330906833746	2611.75972127347	1005.95468468906	188.873013177841	1763.34696004514	1367.51615669172	140.947526746202	1858.35651902432	872.259122148871	177.616620563771	1905.60009864288	1326.82406942263	129.343190244869	2492.53513336421	886.127013138941	141.224730527196	2028.83333235056	1041.94509864202	145.896009351275	1949.03277058294
836.234342192322	152.995349747749	1428.10476622246	1354.55475904274	214.477811281196	2033.92838525732	846.252918446281	174.459474870577	1510.37235910988	1461.33184095884	151.620132793178	2053.1417331613	997.171385496779	163.66163929289	1878.71424440529	1184.9697779626	140.549120888363	1787.12091801585	1019.74772083086	140.001327222897	2001.54500366164	1208.8272523417	173.590897286735	1912.2622372115	818.084130865302	153.673477008876	1329.84618207098	1774.17494932953	188.162506336159	2616.85644841267	1006.11626628038	188.775536671691	1766.39018889394	1368.63772506383	140.915063851928	1862.7644382877	872.602809182723	177.519833630544	1908.48353189313	1327.8976251151	129.347843556032	2497.73826546909	886.768340487625	141.232618954335	2033.21528950011	1042.0678988313	145.836693597807	1951.67235948048
836.765987505102	152.997345554206	1430.67427960719	1355.57632354213	214.476611526397	2037.23935792126	846.308261755616	174.357039244078	1511.87636636969	1463.48786260815	151.536940242208	2058.1831701128	997.837542976774	163.57204502648	1881.05156751216	1185.85244930302	140.506232285892	1789.45577461517	1020.14088174281	140	2003.47779426903	1209.44261356203	173.415842981819	1914.65584853109	817.942736804197	153.599409135651	1331.49647874371	1773.59432728073	187.971570525793	2619.07448832094	1005.74026973839	188.662704657926	1767.66186436886	1368.47396742119	140.876872874622	1864.21344810498	872.590574498223	177.41566369631	1909.82833875119	1328.02401619249	129.338177473259	2499.60115395823	886.916164741062	141.232445009852	2035.37811130994	1041.80977554927	145.760181164076	1952.64740655087
836.560584072046	152.995349747749	1431.24676903846	1355.65909709937	214.421882508165	2038.44142597919	845.82267611714	174.259738361099	1511.69859183531	1463.90458517695	151.439355004888	2059.58329078438	997.893833627578	163.476826184648	1881.30578388405	1185.73146199789	140.450933991499	1789.32445399069	1019.90488065015	140	2003.41787966391	1209.21175738726	173.214979589957	1914.955879212	817.179054267345	153.534400123434	1331.41186463013	1771.87416790683	187.771943384538	2618.38895141815	1004.82678091675	188.534123413984	1767.10086768368	1367.04700085087	140.837760862727	1862.71037576212	872.22082027979	177.309145484607	1909.60746495056	1327.17340587298	129.315022628523	2498.08241059983	886.57721482589	141.220869151727	2035.33921082739	1041.18773888003	145.673389095498	1952.01136336704
835.647619249952	152.986922974495	1429.92832186904	1354.81620092237	214.320362282125	2037.64012346817	844.826695595849	174.167339822261	1509.91926198468	1462.6275222977	151.33836070711	2057.50975102438	997.339612206752	163.37828599215	1879.45593167308	1184.67321828233	140.38777813044	1786.87411254785	1019.0931418997	139.998672777103	2001.46573593435	1208.1654456671	173	1913.18041133787	815.821871378314	153.484026066237	1329.64120511878	1769.18205044991	187.579506765931	2615.09076044849	1003.43938343972	188.394069214826	1764.85336469265	1364.52643170564	140.802371724114	1858.59484933376	871.52534327421	177.2034130212	1907.9472109639	1325.41625743949	129.281237201061	2493.51163120655	885.800915360793	141.196301052989	2033.32926992479	1040.24568152823	145.583096994171	1949.98490437702
834.13703399206	152.970243302896	1427.00932389429	1353.1761712959	214.1873482819	2035.14155768371	843.413529293294	174.07810115535	1506.78588799062	1459.90534613371	151.244469088175	2052.4983659404	996.237630938244	163.281499058922	1875.71361156457	1182.84215988692	140.320878131761	1782.50094558774	1017.81524148848	139.995349747749	1997.91963955936	1206.41588190753	172.785020410043	1909.57523457267	813.963260069569	153.449999887741	1326.4144672101	1765.7859730775	187.407775490368	2609.73265455212	1001.69110388542	188.249315781388	1761.2370267779	1361.1902378913	140.77580781892	1852.46875417712	870.558139963265	177.100553154409	1905.10149122511	1322.91400338738	129.243686039653	2486.53718149007	884.668779133258	141.162239137273	2029.75220331255	1039.0534100011	145.497805733834	1946.92938645537
832.198026840275	152.942876493951	1422.90039312364	1350.95348832083	214.041692640852	2031.38226033861	841.719028663322	173.989577420289	1502.65837838903	1456.12806777066	151.16463362509	2045.3210292151	994.699105846115	163.190261526642	1870.48315735716	1180.46544938147	140.254751781934	1776.77273243233	1016.21064325309	139.988250197392	1993.20898163405	1204.13498244252	172.584157018181	1904.56312741211	811.744833422838	153.429709911478	1322.09703745574	1762.00155206129	187.267297050918	2603.00643187191	999.718182384626	188.106530629557	1756.668767013	1357.36910901318	140.760455439791	1845.06191329198	869.385947013771	177	1901.40081522585	1319.88252946736	129.208063273451	2477.99538059657	883.27983858668	141.123127125378	2025.10730329117	1037.69499218795	145.424624078079	1943.28173775669
830.031722608931	152.901986826423	1418.08217524058	1348.41411865612	213.902519831513	2026.87205119202	839.901552946617	173.898119622694	1497.96343907186	1451.764500624	151.102663425828	2036.88205052308	992.863916752562	163.107857852454	1864.29679307282	1177.79904521253	140.191995834377	1770.33186164675	1014.42189400211	139.976220778044	1987.81943910384	1201.52720806684	172.409102713265	1898.67635406647	809.33909855664	153.418318142104	1317.13915566239	1758.15167255389	187.161114154774	2595.64808706351	997.662298755624	187.973151740465	1751.60462813592	1353.39417427295	140.756678849214	1837.12059492624	868.080365971938	176.898119622694	1897.20411534236	1316.5625820461	129.179089624869	2468.77187629919	881.738294743366	141.084936148072	2019.91370583734	1036.25992827901	145.367596213553	1939.48244560395
827.837647330649	152.848443400415	1413.03609064218	1345.82465557817	213.786575432269	2022.11051610835	838.113043297418	173.802359306261	1493.13016572238	1447.27540376506	151.058450728946	2028.07388363742	990.889893238745	163.036856247461	1857.75799613184	1175.09494605856	140.136204150883	1763.82390503851	1012.58894611659	139.95927654881	1982.26363211624	1198.80629241777	172.267297050918	1892.49756381852	806.928179398629	153.408569708174	1312.01232953593	1754.52541919379	187.088207426049	2588.34642541712	995.654947371781	187.85337516929	1746.48118036169	1349.56301474198	140.761648272924	1829.31681479068	866.709003995614	176.791936726549	1892.8602260391	1313.1817150711	129.158205717205	2459.67684816953	880.141792455235	141.052473253798	2014.64801902223	1034.82547044881	145.326872762363	1935.91039422633
825.788339464373	152.785287608929	1408.18439390209	1343.4118900705	213.705011223672	2017.51893930011	836.481460044022	173.704211157638	1488.53562148248	1443.05535806058	151.031083920001	2019.6626364342	988.932624237988	162.979022350699	1851.45190826707	1172.56977325445	140.089586400323	1757.80825344989	1010.84278437475	139.938843073884	1977.0285619935	1196.1699528284	172.161114154774	1886.57491518397	804.680247071421	153.394860525343	1307.15849527136	1751.35254876034	187.042833722609	2581.69590420088	993.805450171572	187.751056707527	1741.68275995431	1346.11173508009	140.77195368436	1822.2050972334	865.339076748685	176.679104712785	1888.68117125786	1309.93918808926	129.143654075904	2451.36098559185	878.578044656628	141.028429474207	2009.7026098574	1033.45687793173	145.298964478817	1932.8399464166
824.005344833082	152.717435576042	1403.85153442823	1341.32429334194	213.660392338481	2013.39578345826	835.090862440594	173.605930785174	1484.46779010313	1439.3783881777	151.017727277756	2012.21979761284	987.13058956255	162.935323603567	1845.88046498858	1170.38556305074	140.053800476695	1752.70989074331	1009.30276654252	139.916269102915	1972.53866891836	1193.78015348505	172.088207426049	1881.36231681151	802.730735276994	153.373618584445	1302.93485812072	1748.78868676579	187.017727277756	2576.13884458124	992.197161849258	187.666543536915	1737.50010742858	1343.20558269479	140.782719397825	1816.18268137957	864.033028305395	176.560557081733	1884.91522670552	1306.99208079346	129.131536743178	2444.25543655139	877.120968532558	141.013077025505	2005.35323768415	1032.19994726823	145.277992657775	1930.41395734479
822.556423140646	152.652680693541	1400.24339228394	1339.62870359622	213.648647273474	2009.8983590384	833.982883243254	173.513676869888	1481.10414972408	1436.39346936011	151.016400054859	2006.08446600671	985.594457514084	162.904895263991	1841.41584661621	1168.63955633429	140.028429474207	1748.79910895103	1008.07113449459	139.894267536593	1969.1311244388	1191.74994356097	172.042833722609	1877.1828110935	801.171170932605	153.344084190483	1299.58888831672	1746.91535621835	187.005977475148	2571.95551428185	990.884735731684	187.600329273711	1734.12557858943	1340.94163860692	140.790202418815	1811.49381513959	862.847841702638	176.440770141163	1881.74278777174	1304.45513386093	129.118547631051	2438.59143013879	875.829772490905	141.004650252251	2001.76636524892	1031.08274157282	145.257551454705	1928.66008001132
821.45498278182	152.596889079621	1397.44327046184	1338.30754532928	213.658575062485	2007.04740257461	833.154079854987	173.433055658507	1478.50627712375	1434.12768569614	151.025106444853	2001.36584158063	984.393708416586	162.887429844096	1838.26616508979	1167.3601526426	140.013077025505	1746.17544274742	1007.22272868311	139.874352818591	1967.02417688823	1190.13401917578	172.017727277756	1874.20109255658	800.044112700306	153.307126960474	1297.24860267468	1745.74474689129	187.001327222897	2569.26931460181	989.895088382234	187.550362301352	1731.65137604931	1339.3547354929	140.792905916212	1808.24757116142	861.834246043888	176.326872762363	1879.26434909641	1302.40851397807	129.102409434054	2434.41629874379	874.751246443947	141.001327222897	1998.99992009334	1030.12264261131	145.232618954335	1927.510769547
820.674348990839	152.554400321078	1395.43108535482	1337.28973283043	213.675776121209	2004.75996090966	832.572455214049	173.367596213553	1476.63869401978	1432.52278523137	151.04072345119	1997.98762757913	983.555548553255	162.881540282327	1836.46428395295	1166.51458781297	140.004650252251	1744.77030389242	1006.79498847129	139.857761060371	1966.28626640171	1188.93096379988	172.005977475148	1872.41185847117	799.343065630732	153.266687725683	1295.91746568158	1745.22273904358	187	2568.0428628555	989.224412990854	187.514490143034	1730.06852739885	1338.41480400599	140.790626659107	1806.41931646466	861.031774462115	176.225790551206	1877.50459289999	1300.89963529528	129.082403674188	2431.63645840541	873.916568866965	141	1997.02188456688	1029.32973622962	145.200951305239	1926.83543727953
820.162562439669	152.527033512133	1394.11024980573	1336.47623957921	213.685939971545	2002.88908347529	832.187435219724	173.319768404832	1475.3899206065	1431.47011917154	151.061156926116	1995.74329529505	983.062823816772	162.8861026212	1835.89390069034	1166.02225245831	140.001327222897	1744.38421250573	1006.77758026654	139.84537917001	1966.83983599046	1188.08988375768	172.001327222897	1871.67120910335	799.025796441533	153.226741810419	1295.49131690027	1745.25006847739	187	2568.08659859136	988.848169749754	187.490872399815	1729.27345025592	1338.04774192502	140.785971669255	1805.85358225032	860.464900173124	176.144714099915	1876.42020337113	1299.94264025423	129.061156926116	2430.06491638511	873.34214901143	141	1995.73441541565	1028.7068721726	145.16356636017	1926.47940464376
819.8584870537	152.511952931549	1393.33988803684	1335.77299968325	213.676646707953	2001.26863977772	831.944444019132	173.287743595014	1474.60350690144	1430.85295216651	151.082403674188	1994.36630122701	982.867258071334	162.898917788843	1836.3328172228	1165.78182250817	140	1744.74361167642	1007.11743328081	139.837760862727	1968.47930928864	1187.53233490338	172	1871.7427608849	799.021099741722	153.190149854555	1295.78881828832	1745.69503550124	187	2569.1006614456	988.722578233536	187.475179790292	1729.09636782637	1338.14242861935	140.780108299931	1806.29541457399	860.138572290558	176.086880203152	1875.91299969541	1299.51619829897	129.04072345119	2429.44917730815	873.026002134655	141	1994.99344980396	1028.25104317143	145.123127125378	1926.28432587524
819.707039123181	152.50444712331	1392.97145117789	1335.11337746022	213.640454596017	1999.7565557916	831.796431545102	173.268235892277	1474.11238753525	1430.57618615957	151.101082211157	1993.60226032134	982.898026885292	162.916269102915	1837.50503048658	1165.68901176435	140	1745.56229161844	1007.72065114628	139.835192651623	1970.90991327853	1187.16636865022	172	1872.35354781261	799.246211536418	153.158638994488	1296.57918360917	1746.41473184534	187	2570.71410078004	988.793857992093	187.465338239901	1729.32571656815	1338.57293509644	140.773942249907	1807.42598722955	860.034453855325	176.05325630232	1875.84601186185	1299.55860861354	129.023779221956	2429.49521246286	872.94629500913	141	1994.62938400648	1027.94281760184	145.084936148072	1926.0935096496
819.662077280754	152.49807293272	1392.87407406322	1334.45964546718	213.57511406406	1998.26292840393	831.703817517125	173.256486089669	1473.76817744437	1430.56793358804	151.113897378801	1993.25313201018	983.075032902035	162.932865598736	1839.12880225534	1165.65335079561	140	1746.59754237481	1008.47196100221	139.837760862727	1973.79779124395	1186.90196379697	172	1873.24389906489	799.614656353286	153.132951879453	1297.62858982205	1747.27435498566	187	2572.56218456271	989.008376778502	187.459215050543	1729.75717560623	1339.22083847304	140.767910102413	1808.9276517758	860.120045598085	176.041506499712	1876.07379791097	1299.98022108214	129.011749802608	2429.91091350288	873.068632368297	141	1994.47841435813	1027.7528170029	145.052473253798	1925.76907959489
819.69004467398	152.487650353009	1392.94881945899	1333.80764042333	213.482977383082	1996.75774432889	831.640435310074	173.248891541096	1473.46009960023	1430.78742550121	151.118459717673	1993.19818899735	983.328300502598	162.941549271054	1840.96813402889	1165.61864498481	140	1747.69503601355	1009.26352720544	139.844051947113	1976.84181685039	1186.67032692809	172	1874.21454494014	800.046276823988	153.111709938555	1298.73367748721	1748.15807655403	187	2574.34712951482	989.317499373863	187.45530462701	1730.23141679406	1339.98746863856	140.760443021937	1810.54607196121	860.349751515192	176.046700926337	1876.46309429119	1300.67034777163	129.004650252251	2430.44111482815	873.347473033083	141	1994.40542351111	1027.63728911883	145.028429474207	1925.19943720844
819.775967482873	152.468918098746	1393.13778671813	1333.18200880345	213.37028999287	1995.27161123279	831.596148598686	173.242188706181	1473.12944279307	1431.2241296244	151.113897378801	1993.39598427218	983.604149622387	162.934714278332	1842.84222414822	1165.55605225681	140	1748.78370719791	1010.01113513901	139.851783585223	1979.80379328812	1186.42338300338	172	1875.13110340506	800.472710596208	153.095480699693	1299.74434566112	1748.97823129244	186.998672777103	2575.87708420841	989.682296009113	187.453585308807	1730.65476298295	1340.80133530714	140.750684218612	1812.12275343613	860.674828612974	176.062484149013	1876.91391584326	1301.5161513783	129.001327222897	2430.90305955227	873.733686426757	141	1994.32120552815	1027.54762713256	145.013077025505	1924.3145828594
819.921145768423	152.442800006152	1393.4188546215	1332.63140171799	213.246661335594	1993.87930290629	831.576452252705	173.235959139143	1472.76806375232	1431.88950399917	151.101082211157	1993.86559756941	983.874301471195	162.90602024649	1844.63050446539	1165.47105339171	140	1749.85432894071	1010.67257633721	139.857952763733	1982.52992812653	1186.14271108676	172	1875.91697711007	800.84097586153	153.084936148072	1300.57573803481	1749.66821616195	186.995349747749	2577.07688769865	990.071618254069	187.452711647133	1731.00244765536	1341.61036297926	140.73895713368	1813.6010113006	861.052547845629	176.082403674188	1877.3624784379	1302.42045114927	129	2431.1956861455	874.181540774068	141	1994.18257036294	1027.44255011874	145.004650252251	1923.09227043589
820.139554024046	152.412076109322	1393.79695680661	1332.21706478704	213.121009347012	1992.67852504337	831.598297597477	173.231044329257	1472.40741277247	1432.80453529077	151.082403674188	1994.64960160249	984.13169248729	162.853290093628	1846.2590918387	1165.38940596215	140	1750.9208924481	1011.24417578601	139.858738512028	1984.94447900372	1185.83270732862	172	1876.53459260469	801.111803486015	153.082774125277	1301.19679659659	1750.17690039432	186.988250197392	2577.95055128935	990.457922738399	187.45173689525	1731.29117370532	1342.36778491262	140.726141966036	1814.98132438409	861.444927261454	176.101082211157	1877.76950121253	1303.30301424067	129	2431.28254950348	874.6483231272	141	1993.97461883022	1027.29197301753	145.001327222897	1921.55660355275
820.45439230841	152.382410246566	1394.28138323102	1332.0036428888	212.999470943253	1991.7572337082	831.686390596654	173.227527558715	1472.09119617343	1433.98161887174	151.061156926116	1995.76124358473	984.380347037716	162.777532478147	1847.67718850821	1165.34285682439	140	1751.97877534918	1011.74762748769	139.850439206872	1987.01682077407	1185.51077886114	171.998672777103	1876.95728716859	801.258598427301	153.089586400323	1301.60865386384	1750.45819318123	186.974893555147	2578.52498265659	990.811519113507	187.448126590585	1731.54265760824	1343.01950951954	140.714628175127	1816.25995080797	861.823169850694	176.113897378801	1878.11128502661	1304.10839388632	129	2431.17545925663	875.09889928193	141	1993.70097523206	1027.08429729915	145	1919.77883995445
820.88968598137	152.359602717581	1394.86916953954	1332.04839090354	212.8861026212	1991.16833729752	831.866510285214	173.22499034723	1471.8566186635	1435.41838581268	151.04072345119	1997.15008682419	984.622760668342	162.686204263142	1848.83138071549	1165.34909662341	140	1752.96577483846	1012.20891530422	139.832312444327	1988.72718372104	1185.19129864236	171.995349747749	1877.14332189129	801.266016342639	153.105903279405	1301.82199427067	1750.46406658877	186.954626296559	2578.79137479335	991.095637056107	187.438149753901	1731.75151720396	1343.49004827948	140.707702569253	1817.37494582027	862.162917744447	176.118459717673	1878.36217156859	1304.7945149698	129	2430.89088942272	875.501543216708	141	1993.35922314618	1026.82350096167	145	1917.8528346117
821.458795726521	152.346787480364	1395.53256116957	1332.38198394633	212.779659905021	1990.91144715633	832.154474217451	173.221407497842	1471.71625800204	1437.07309924841	151.023779221956	1998.68357143022	984.850298294449	162.587659333043	1849.66893138468	1165.40197300783	140	1753.77011954872	1012.64008889083	139.803966145897	1990.05430934438	1184.87528736705	171.988250197392	1877.03740023344	801.126155001411	153.129511685363	1301.83659748593	1750.14400977299	186.925766048379	2578.66937497544	991.269296923645	187.418463369081	1731.86411994716	1343.69107997504	140.706224119549	1818.17734783852	862.444520914403	176.113897378801	1878.48755645494	1305.32894615055	129	2430.41833560458	875.832734625991	141	1992.9305599949	1026.52202844877	145	1915.87057233207
822.157438940412	152.345551299331	1396.21740718084	1333.00079196317	212.678039347749	1990.92929126622	832.553287928003	173.213914224921	1471.65304861553	1438.86325255705	151.011749802608	2000.15539116266	985.044084737069	162.493243394962	1850.13932589089	1165.469957387	140	1754.24451567895	1013.04021382221	139.767628447846	1990.97950213502	1184.54914970392	171.974893555147	1876.58056022298	800.839788569426	153.155948052887	1301.64367944867	1749.46210405296	186.887839628708	2578.0270860352	991.295815516868	187.387239784325	1731.79793886366	1343.53700820202	140.710667545425	1818.46339822999	862.651708611733	176.101082211157	1878.4546825825	1305.68584441885	129	2429.73123561609	876.074734319687	141	1992.39281288604	1026.19503338069	145	1913.91305916371
822.959539296101	152.353835127721	1396.84777897618	1333.86113864149	212.579349724525	1991.11543291237	833.048013921037	173.20095130524	1471.62624624044	1440.6723502183	151.004650252251	2001.31330388617	985.181945993232	162.411808910435	1850.21759226774	1165.50081206677	140	1754.25076003296	1013.40137647656	139.726569681097	1991.51360574452	1184.18661340094	171.953299073663	1875.73101079353	800.418530961701	153.179616643789	1301.22283337465	1748.40746397266	186.841794282795	2576.71270279804	991.152879283153	187.344517467766	1731.46004762018	1342.97121874523	140.718951373815	1818.02345387101	862.772317796406	176.082403674188	1878.2438664137	1305.84599848782	129	2428.79877708342	876.219073674713	141	1991.72943705022	1025.85407795996	145	1912.04103033211
823.818359319482	152.368009832072	1397.35022222121	1334.88067164509	212.482803659796	1991.34274760677	833.608180167549	173.180943866686	1471.58830040809	1442.36914310597	151.001327222897	2001.93579068457	985.243335009213	162.348917676585	1849.90587126011	1165.43976273748	140	1753.69110128097	1013.71108047403	139.685435670301	1991.69020575249	1183.7603050159	171.922443019025	1874.47353738818	799.884050452637	153.196301052989	1300.56435477477	1747.0111189963	186.789416670519	2574.6283212491	990.841106622194	187.293863793829	1730.78500678128	1341.98543666666	140.727446471257	1816.72080006886	862.801445105531	176.061156926116	1877.85335424728	1305.80558797495	129	2427.60329588142	876.267304536093	141	1990.93681401793	1025.50964563118	145	1910.29445287712
824.671463450613	152.385328832334	1397.67658142808	1335.94986562696	212.391363017655	1991.49857634636	834.187412836408	173.15462082999	1471.5027648396	1443.82318327378	151	2001.8875552995	985.222570531085	162.306953237188	1849.25800701783	1165.25133940358	140	1752.56083249482	1013.96279687747	139.648382981877	1991.581053354	1183.25747351615	171.882067301247	1872.85464506618	799.270238060845	153.202164422313	1299.67646425222	1745.34973987502	186.733306712096	2571.77230634556	990.38505323663	187.240609391394	1729.75386263997	1340.63282060755	140.730774238212	1814.53596053239	862.73545020809	176.04072345119	1877.30182604839	1305.57407737625	129	2426.15835362417	876.226944177689	141	1990.03050764448	1025.16700775314	145	1908.70053456987
825.458010043821	152.402854090888	1397.82315273218	1336.95740144392	212.309928533129	1991.51549863835	834.737613489576	173.124861433113	1471.35855741802	1444.94095848813	151	2001.16239942984	985.127764733193	162.284508479038	1848.36657399561	1164.93298198846	140	1750.95437602796	1014.15342388136	139.618108302843	1991.27638946545	1182.68780451319	171.834415115697	1870.97511589509	798.619441087962	153.196301052989	1298.60338953497	1743.54035662024	186.677162557589	2568.28654245514	989.82793588207	187.192446267114	1728.41515384613	1339.02267757921	140.725771514948	1811.60740343644	862.578241623058	176.023779221956	1876.62448939305	1305.18323299669	129	2424.51387392937	876.113510274656	141	1989.0437804758	1024.83420338859	145	1907.27733229137
826.125434181878	152.418634185078	1397.82873131662	1337.80252392913	212.24273478044	1991.37512100054	835.210325434206	173.094153476796	1471.16863620875	1445.66762979478	151	1999.88375725077	984.980034586819	162.2774484834	1847.3499448868	1164.51932462591	140	1749.05099671975	1014.28273465438	139.594758883401	1990.86477352505	1182.0841789511	171.784222243893	1868.97913964065	797.979760503476	153.179616643789	1297.42162511748	1741.72553895999	186.623732531983	2564.43261337939	989.22328119988	187.154353631104	1726.8692084139	1337.30540249069	140.709200436576	1808.20181440975	862.336260666821	176.011749802608	1875.85904857878	1304.67826012701	129	2422.74231419788	875.945117045018	141	1988.01528638953	1024.51941597985	145	1906.03371951397
826.644411306202	152.433582677428	1397.76195132871	1338.42519321684	212.192794000526	1991.10388033026	835.573342087789	173.065807178367	1470.96177535566	1446.00471072603	151	1998.26485511211	984.810377726257	162.282378282818	1846.34168884698	1164.07674283837	140	1747.08920616561	1014.35653878003	139.578019026859	1990.43283059426	1181.50062867101	171.736652459125	1867.04247985813	797.400693691817	153.155948052887	1296.23656485795	1740.05219409739	186.575471445979	2560.56112204885	988.624601750133	187.13163707441	1725.25501651889	1335.64615383301	140.680854138147	1804.6725152422	862.021151638626	176.004650252251	1875.04798836001	1304.11626685937	129.001327222897	2420.94007690869	875.740180847193	141	1986.99133580785	1024.23323195351	145	1904.97598469455
827.010226414586	152.445964567789	1397.69569010048	1338.80698131724	212.159983372839	1990.74835557069	835.812175936235	173.042050674087	1470.76776359356	1445.997708091	151	1996.54410674748	984.654627689539	162.294672329374	1845.46943518486	1163.6863245736	140	1745.3120805654	1014.38925354028	139.565207333984	1990.06216280969	1180.99767958386	171.697966483604	1865.34021762634	796.924956226933	153.13083890826	1295.16696546482	1738.64860525249	186.533713629372	2557.04804140538	988.077602673488	187.1239101739	1723.72193296213	1334.19770508192	140.642960755922	1801.39370340763	861.650151126947	176.001327222897	1874.23602079348	1303.55747896024	129.004650252251	2419.21782828201	875.518611476479	141	1986.02355497411	1023.98542504031	145	1904.11178218233
827.245044758811	152.455226140942	1397.68980562036	1338.97703912842	212.141261487972	1990.35755651975	835.934665526906	173.023779221956	1470.60816659067	1445.73284222851	151	1994.93644241279	984.546528817816	162.3112584558	1844.83527167491	1163.42285170619	140	1743.91803020011	1014.40573972334	139.553605629697	1989.82738607857	1180.63177935195	171.670861173381	1864.01344773798	796.582435320672	153.110553531655	1294.3249292933	1737.6017218482	186.498850419021	2554.22628868954	987.61410145516	187.129232068624	1722.40541366247	1333.07282250102	140.598605407281	1798.6916360933	861.246110305587	176	1873.47291721486	1303.05711153688	129.011749802608	2417.69640416539	875.297253636714	141	1985.16475836221	1023.7844143712	145	1903.44791525897
827.388132482271	152.460601752961	1397.77830976091	1338.99340163218	212.131624656556	1989.96817154436	835.965504965697	173.011749802608	1470.49150335471	1445.31743181506	151	1993.60167582681	984.513425553846	162.329578959534	1844.50717351951	1163.34033883535	140	1743.02923653221	1014.43903568474	139.543179575217	1989.80139065319	1180.44116475087	171.656809755131	1863.15377479051	796.383202071406	153.101336202931	1293.79216457804	1736.94086035638	186.47119848074	2552.32030093641	987.247761386045	187.143654075904	1721.39607801801	1332.32669818271	140.553602154928	1796.78408132487	860.833197026468	175.998672777103	1872.81495665813	1302.65636769202	129.023779221956	2416.49907133409	875.089276031299	141	1984.47264483727	1023.6305031515	145	1902.99455753395
827.486907886579	152.459186820271	1397.96955022762	1338.92925330504	212.124437192821	1989.60078707014	835.939345257998	173.004650252251	1470.41342085779	1444.86866469733	151	1992.63713155508	984.575395773056	162.347336461913	1844.51627799013	1163.46629216694	140	1742.69118690174	1014.52885023557	139.534775519639	1990.04674586181	1180.44337872456	171.652685500715	1862.79850989801	796.317338117222	153.106553347233	1293.60861630503	1736.6441389918	186.449743592101	2551.41778508423	986.979634330866	187.16051039176	1720.7339850796	1331.96020659235	140.512227741115	1795.75766975447	860.435943861761	175.995349747749	1872.31506226386	1302.37828821511	129.04072345119	2415.73311677471	874.902324749022	141	1983.99440775067	1023.51745466643	145	1902.75698493047
827.58990852785	152.448396710441	1398.25291184352	1338.85602588671	212.115224601697	1989.26137764079	835.894127050757	173.001327222897	1470.35896410588	1444.50117802623	151	1992.09269329153	984.738259707547	162.361072664146	1844.85162594795	1163.79526190407	140	1742.87765258178	1014.70508509913	139.529727153507	1990.59490611416	1180.62930105608	171.653383335633	1862.92849155583	796.353485952835	153.125659599262	1293.76131724263	1736.63551190919	186.432250647357	2551.46836581142	986.792692809776	187.175054304917	1720.40268718948	1331.91934340473	140.477624350798	1795.57771195499	860.070347339171	175.988250197392	1872.01194857575	1302.22570397233	129.061156926116	2415.46535377178	874.73761907357	141	1983.75773434977	1023.42842108157	145	1902.72392233413
827.732341274311	152.425593919057	1398.61029530644	1338.82551729945	212.101082211157	1988.95134984249	835.859242265761	173	1470.31096930945	1444.30676058797	151	1991.99222752073	984.99495492207	162.36723402446	1845.46377424411	1164.29833501898	140	1743.5153436209	1014.98247317197	139.529727153507	1991.43446929373	1180.96813847221	171.651880489565	1863.48106479186	796.451176272648	153.155310402913	1294.19532715857	1736.81837441941	186.41566369631	2552.31719034797	986.66655340364	187.183485885345	1720.34324638322	1332.12518901921	140.451192720875	1796.12118994592	859.749956915091	175.976220778044	1871.9151924206	1302.19375105483	129.082403674188	2415.70510137922	874.596554543199	141	1983.75623507927	1023.34881377217	145	1902.85780730215
827.931374163117	152.391622975632	1399.01866429275	1338.86062931925	212.082403674188	1988.66327312172	835.849330353355	173	1470.24623916285	1444.34080512741	151	1992.33397641647	985.327557916095	162.361868781837	1846.28055084353	1164.93256065138	140	1744.51640943632	1015.35744676659	139.534775519639	1992.51034460363	1181.41719602205	171.642271182999	1864.37124074871	796.567442484602	153.188136137596	1294.82543317035	1737.09175241318	186.396728467794	2553.75569095276	986.578537414915	187.183485885345	1720.4741948907	1332.49131328524	140.432257492358	1797.22660087639	859.483562046888	175.95927654881	1872.00771352765	1302.27805408875	129.101082211157	2416.4161986768	874.482766580512	141	1983.95782396172	1023.27083901062	145	1903.10693457176
828.184438789035	152.348734442734	1399.45292552561	1338.95415542289	212.061156926116	1988.3873519252	835.862555305611	173	1470.14243977776	1444.6201289561	151	1993.10009169113	985.70814268222	162.341953994263	1847.21766065298	1165.64512094753	140	1745.79836073703	1015.80538765886	139.543179575217	1993.73322544503	1181.92557510006	171.6209158417	1865.50637944372	796.667666401383	153.216306812854	1295.5575059737	1737.37635672212	186.371617215767	2555.57497509629	986.512927613859	187.175054304917	1720.71391514887	1332.94722917058	140.416990919207	1798.74093719284	859.276545804043	175.938843073884	1872.24545799251	1302.47941951395	129.1138973788	2417.52478129232	874.402361971137	141	1984.30713841315	1023.19689688608	145	1903.41155985197
828.472304759939	152.30352681769	1399.89567629169	1339.07461102113	212.04072345119	1988.11929465822	835.883468993197	173	1469.98672337535	1445.12572272434	151	1994.26788508081	986.106261916064	162.306595855269	1848.1996390948	1166.39105614961	140	1747.3018615266	1016.29216346072	139.553605629697	1995.00574873963	1182.44878114364	171.588968575865	1866.8067436347	796.733901344437	153.232357096474	1296.31255604597	1737.62832074632	186.33888772603	2557.61344395174	986.464587690071	187.159183168863	1721.00312131691	1333.44940503711	140.40269909794	1800.55420092567	859.136711265803	175.917596325812	1872.57251301276	1302.81245756405	129.118459717673	2418.94668856147	874.369085517731	141	1984.74417462644	1023.14472171059	145	1903.72028509065
828.765749258593	152.264383806176	1400.34065028225	1339.17601079169	212.023779221956	1987.86210776994	835.886215082545	173	1469.78205814026	1445.81204054487	151	1995.81373660039	986.495454534493	162.258785202002	1849.17144219291	1167.13849732233	140	1748.98666600923	1016.78128555113	139.565207333984	1996.24257706844	1182.95374626528	171.55239216634	1868.20889591794	796.759141819914	153.23368431937	1297.0341487423	1737.82782273522	186.299514215413	2559.76029195893	986.434092122352	187.137676600757	1721.30993444111	1333.97242335181	140.386568141852	1802.59028640445	859.070224696341	175.898917788843	1872.93805499944	1303.29327290918	129.1138973788	2420.60746699028	874.398048717917	141	1985.22055051657	1023.14043389477	145	1904.00478709382
829.038273214028	152.23938806195	1400.80713967803	1339.21744534166	212.011749802608	1987.64636284243	835.849316192606	173	1469.56102839828	1446.62711116218	151	1997.73454696155	986.858453273644	162.202962588463	1850.11403777191	1167.87870714382	140	1750.84101469698	1017.24837547064	139.576691803962	1997.398395976	1183.42717969267	171.518087981953	1869.67951776773	796.749546195768	153.219629842208	1297.69739148735	1737.98256519174	186.255158866772	2561.95279634933	986.428822775753	187.112832013765	1721.63059027952	1334.5110041468	140.369318103434	1804.79740751478	859.083547855606	175.8861026212	1873.3103133688	1303.93575422094	129.101082211157	2422.45754020508	874.504312236904	141	1985.71430067535	1023.2098987561	145	1904.26489450792
829.274907254	152.234217324461	1401.33863158241	1339.17858775644	212.005977475148	1987.5257362131	835.762552044787	173	1469.382752532	1447.52788752017	151	2000.04357452574	987.196738485229	162.148233570231	1851.03969485158	1168.62866916124	140	1752.86531129355	1017.68903352827	139.59010863115	1998.46884303334	1183.87989567342	171.495687955467	1871.20874124128	796.72001078072	153.195235687953	1298.30365573789	1738.1160310442	186.211635742812	2564.1567581957	986.459497208361	187.087053926439	1721.98555691952	1335.06742208684	140.353962595819	1807.12450169768	859.177448634039	175.881540282327	1873.67835729144	1304.73762233378	129.082403674188	2424.45935500895	874.694360619902	141	1986.2268583574	1023.37275773485	145	1904.52030831359
829.473996500961	152.249547055486	1401.99471921655	1339.06658190628	212.005977475148	1987.57154743294	835.630392552849	173	1469.31880097302	1448.48043613937	151	2002.75059912967	987.521323097929	162.102663425828	1851.97632218005	1169.41974583269	140	1755.05095164505	1018.11191695691	139.606358500235	1999.46986718457	1184.33499392588	171.491244529592	1872.79217251832	796.687805006706	153.167339822261	1298.86458960766	1738.2522735872	186.173317297408	2566.32960445218	986.53621592923	187.062484149013	1722.39197346122	1335.64222642432	140.345577491776	1809.49099496534	859.347449382569	175.8861026212	1874.04744553576	1305.67943627425	129.061156926116	2426.57443741231	874.966619575679	141	1986.77331447465	1023.63718786579	145	1904.80070424593
829.646320261135	152.283987288377	1402.83102715222	1338.91358465989	212.011749802608	1987.85511380618	835.470207980666	173	1469.43056822006	1449.45223450312	151	2005.82601414951	987.846980875718	162.073523560907	1852.94152859081	1170.27909144332	140	1757.35726917475	1018.52662817872	139.624603759921	2000.40347258612	1184.81791442365	171.505511954495	1874.41201140009	796.665897245859	153.142603828496	1299.38171016511	1738.40606810983	186.143931051393	2568.38286983948	986.660511448844	187.04072345119	1722.8414194202	1336.2213780297	140.348742053413	1811.75882858836	859.574408781617	175.897590565946	1874.41668298275	1306.71544208498	129.04072345119	2428.73486786882	875.300550747654	141	1987.35659293628	1023.99671234339	145	1905.12700905443
829.80886853883	152.33099965803	1403.8678232201	1338.77008149783	212.025106444853	1988.41710520409	835.306674272664	173	1469.73983962049	1450.4100376458	151.001327222897	2009.15395197913	988.180008547644	162.065285721668	1853.91791151407	1171.2085802036	140	1759.69229852979	1018.92653657938	139.643384996214	2001.22565137587	1185.33766778661	171.53492361796	1876.01736821553	796.660528720791	153.125659599262	1299.83465156461	1738.57471738983	186.125659599262	2570.18026359622	986.823896788905	187.023779221956	1723.29103620971	1336.77300120893	140.367596213553	1813.73967834763	859.827906782336	175.912946073561	1874.77045449026	1307.78036424621	129.023779221956	2430.83918106383	875.660994675136	141	1987.95739984318	1024.43210649738	145	1905.50541276304
829.976692788132	152.383634079319	1405.06922942215	1338.68682535589	212.045373703441	1989.24187449447	835.161853363748	173	1470.20709875274	1451.30693254424	151.004650252251	2012.52413689157	988.503398584315	162.077579698651	1854.83301753847	1172.16836666615	140	1761.90332691204	1019.27122316988	139.66076250273	2001.82589984268	1185.87211687308	171.571259278184	1877.50848326095	796.664418780138	153.117932698753	1300.16907494854	1738.72639040447	186.117932698753	2571.52708081035	987.001198272576	187.011749802608	1723.64809338061	1337.23898699523	140.404082009926	1815.19902786241	860.062890637498	175.927093271276	1875.06299432341	1308.7878939183	129.011749802608	2432.73755323877	875.997060741455	141	1988.51570040832	1024.91021781093	145	1905.91301237157
830.159051791093	152.434775510561	1406.33266747296	1338.70410905654	212.072906728724	1990.2456433122	835.0509457463	173	1470.73243510387	1452.08655424853	151.011749802608	2015.63648489964	988.779029939392	162.106530629557	1855.56842784014	1173.07829251264	140	1763.7955826183	1019.49278168967	139.672147748152	2002.04466507611	1186.36916548892	171.603017540432	1878.75119082828	796.657672879769	153.117482266015	1300.30783317946	1738.80708472818	186.117482266015	2572.21232050703	987.152672826568	187.004650252251	1723.79141178357	1337.54387906225	140.455842973125	1815.90341241078	860.231184727358	175.935497326854	1875.22030979588	1309.64696468881	129.004650252251	2434.24655533885	876.25470995754	141	1988.93913464602	1025.39159155123	145	1906.29379476197
830.356274126006	152.478437761886	1407.5068547141	1338.84385520687	212.106182896144	1991.28481284641	834.980715237458	173	1471.17454156914	1452.68962142258	151.023779221956	2018.15761579026	988.953648178957	162.144887823202	1855.98986531283	1173.83352426818	140	1765.17800383322	1019.51330546595	139.674454460534	2001.72842312301	1186.75492257319	171.620653983839	1879.60835456393	796.614539967639	153.119874853948	1300.17108060385	1738.7582135768	186.119874853948	2572.06113211439	987.235522411404	187.001327222897	1723.60489874004	1337.6160927534	140.517549635838	1815.68162450505	860.292801651767	175.935497326854	1875.17471106729	1310.27908359062	129.001327222897	2435.21033270371	876.388971752812	141	1989.14330208276	1025.8344312301	145	1906.58195938175
830.562167161585	152.509558443732	1408.42673148842	1339.10211042759	212.14047843945	1992.18985125972	834.950666289348	172.998672777103	1471.39366701254	1453.06984194138	151.04072345119	2019.80161429983	988.979412555018	162.184813108242	1855.99378354302	1174.33370044241	140	1765.92025415793	1019.27906799854	139.665941811728	2000.80129068899	1186.957730205	171.618383367816	1879.98425943989	796.512224147127	153.11978694057	1299.71108634054	1738.54158318578	186.11978694057	2571.01231656564	987.219474769036	187	1723.02754364877	1337.41631041624	140.579424193578	1814.49623593459	860.231255551316	175.927093271276	1874.88753897869	1310.64096317199	129	2435.54081372242	876.381115498001	141	1989.07984062135	1026.20722154833	145	1906.71506368969
830.767338838091	152.527992983715	1408.96810234392	1339.4562742028	212.170404052666	1992.81881816758	834.959015722204	172.995349747749	1471.3018929746	1453.20899257887	151.061156926116	2020.41828342064	988.830836879239	162.220957065105	1855.5534978497	1174.51397967381	140	1766.00421217277	1018.78729468931	139.648370564023	1999.31990981785	1186.9314481365	171.595897310225	1879.86856319261	796.342756078156	153.1138973788	1298.92815722152	1738.16189545865	186.115224601697	2569.14912663274	987.098816046729	187	1722.07383758922	1336.95944852745	140.63055537289	1812.47365015507	860.06087702337	175.912946073561	1874.38220357984	1310.74256858097	129	2435.28461203764	876.244101050854	141	1988.77902834579	1026.49761735718	145	1906.67472235951
830.965722435869	152.533337665688	1409.09724897191	1339.87414866978	212.189113589253	1993.1172399174	835.0063780076	172.988250197392	1470.90593734331	1453.13219630072	151.082403674188	2020.05894420313	988.517965298356	162.248757151332	1854.74103526506	1174.36742480823	140	1765.54345466672	1018.09616199684	139.625037037203	1997.48163931902	1186.67369739958	171.560557081733	1879.35294755576	796.116957256883	153.101082211157	1297.89244499411	1737.67181869934	186.107059686304	2566.72372320799	986.895618665872	187	1720.85452732996	1336.316321078	140.660573706658	1809.91130675222	859.830142555445	175.897590565946	1873.75358749918	1310.65636768283	129	2434.64251444849	876.027656725507	141	1988.36022890165	1026.72246814346	145	1906.51168898933
831.158340008551	152.52825656989	1408.88924435068	1340.32749198881	212.191200368001	1993.13926575545	835.098758956081	172.976220778044	1470.31330753926	1452.9115042966	151.101082211157	2018.97844847441	988.08827891822	162.267886121038	1853.72042195743	1173.95222323097	140	1764.76684661805	1017.31452045594	139.60173096566	1995.58900124171	1186.23269763862	171.522650320826	1878.61868742421	795.867221542684	153.082403674188	1296.73246415377	1737.16571536903	186.100130951944	2564.10197118674	986.65731255635	187	1719.54915232825	1335.60568345513	140.663140239074	1807.20660310702	859.607399142591	175.8861026212	1873.15250040815	1310.49740252241	129	2433.93785984052	875.802372972683	141	1988.01221233439	1026.92205773715	145	1906.34563235396
831.355657786443	152.51638862928	1408.52758064649	1340.80037555681	212.175583361664	1993.05752699849	835.248102505619	172.95927654881	1469.72262623343	1452.65752966631	151.115224601697	2017.60844211056	987.61902355977	162.279482263103	1852.71849124428	1173.38479959609	140	1763.96779350905	1016.57662125091	139.585108277394	1993.9845188147	1185.70054014308	171.495775868845	1877.90268059241	795.640889746165	153.061156926116	1295.61798788458	1736.75181613114	186.102663425828	2561.69056965337	986.439687149826	187	1718.36844321408	1334.95729942785	140.637598213073	1804.77019983173	859.466179443652	175.881540282327	1872.75237374638	1310.40027492157	129	2433.53511239327	875.645796087441	141	1987.94727048786	1027.15295562146	145	1906.33845090121
831.572814349203	152.500988877236	1408.25654560739	1341.29374947076	212.145683940893	1993.11570460374	835.46604794516	172.938843073884	1469.36829357362	1452.48845217447	151.123109969924	2016.45264709769	987.200931890347	162.285366262651	1851.9610338948	1172.8132315602	140	1763.42977691269	1016.01257012029	139.578970098504	1992.95738415508	1185.1949461532	171.490179164556	1877.43531934357	795.491988085895	153.042050674087	1294.72130195323	1736.52820882319	186.122953402092	2559.83027745849	986.294972891216	187	1717.4959587262	1334.4863234525	140.590723563449	1802.91639909241	859.466693684172	175.8861026212	1872.69561206699	1310.47959128713	129	2433.72894877929	875.619987291266	141	1988.3331160848	1027.46894594496	145	1906.6382398795
831.819107727701	152.485859628206	1408.30396388469	1341.81270394476	212.110377908484	1993.54334347712	835.754807294953	172.917596325812	1469.44832548386	1452.49214990245	151.125647181409	2015.94412192089	986.91829247589	162.287121200609	1851.62637103358	1172.38169924179	140	1763.36361823246	1015.72082177124	139.585025876612	1992.68601841752	1184.83133892948	171.511939862379	1877.39144177682	795.471095387671	153.028429474207	1294.18984926123	1736.56461704197	186.167166098974	2558.74125777924	986.260551391714	187	1717.05672360886	1334.27082400606	140.533601957285	1801.81584072708	859.640114328291	175.898917788843	1873.06185896369	1310.80279040971	129	2434.65868439908	875.757671063359	141	1989.24938519433	1027.90279600408	145	1907.32911732189
832.087897097382	152.473766691844	1408.81819549952	1342.35167061749	212.082229950902	1994.49311432525	836.100635096199	172.898917788843	1470.07642457431	1452.69171420233	151.124861433113	2016.3399538317	986.830853780948	162.286693485548	1851.79569586544	1172.19278496115	140	1763.85018234809	1015.7528539233	139.601368446301	1993.2041965376	1184.69236299501	171.560377796225	1877.84199625933	795.614217397541	153.024826828113	1294.11720930564	1736.8849245913	186.236213130917	2558.4804511811	986.35252051505	187	1717.09445862387	1334.33754935153	140.480949417978	1801.47133815989	859.984369273501	175.917596325812	1873.84676454319	1311.37150473489	129	2436.27424425019	876.053490774497	141	1990.66011191485	1028.45381549616	145	1908.39997849585
832.351159775496	152.469111701992	1409.81755149901	1342.87921909436	212.073188245349	1995.9739636959	836.468590290135	172.886102621199	1471.24197482819	1453.02869430417	151.123127125378	2017.63836957074	986.962618846675	162.284132515354	1852.44515450952	1172.28042972859	140	1764.82654477807	1016.1097902805	139.623282099245	1994.41120723775	1184.80782969385	171.628382784233	1878.74269979157	795.933890258367	153.033079726457	1294.52376929269	1737.4625942166	186.326872762363	2558.94458242266	986.562666461016	187	1717.56867468259	1334.65790066247	140.446480417425	1801.73927077901	860.4643055044	175.938843073884	1874.98012256433	1312.12453895038	129	2438.37184557761	876.466228653049	141	1992.43684000295	1029.08433801209	145	1909.75558787077
832.565697759632	152.474389234822	1411.17868704433	1343.34429886841	212.091856412922	1997.84292988386	836.813342484262	172.881540282327	1472.81686010949	1453.38709205504	151.122313852233	2019.58538891693	987.30074260303	162.279635923646	1853.45288947251	1172.6051082528	140	1766.1022992569	1016.74913728581	139.645931244689	1996.10401802617	1185.15032530368	171.705333232847	1879.94106508601	796.414892991975	153.053800476695	1295.36055423466	1738.22265041639	186.429020338555	2559.9119197543	986.862818748526	187	1718.37557404491	1335.15551601513	140.439831299804	1802.38554378061	861.019444430036	175.95927654881	1876.34280096712	1312.94964478963	129	2440.65605980722	876.926008850901	141	1994.39042965463	1029.72564105356	145	1911.24589738131
832.68157913046	152.48937896058	1412.68016524273	1343.68147266953	212.139539598091	1999.84650709218	837.086934574079	172.886102621199	1474.59661518297	1453.61863244654	151.123127125378	2021.75268379655	987.799454271601	162.272536373288	1854.63675497815	1173.06837101549	140	1767.40633624242	1017.59571828312	139.664962322244	1998.02826452721	1185.64359492135	171.778859701044	1881.21729894007	797.017110534212	153.084936148072	1296.52285717734	1739.05989052885	186.53080038463	2561.10185440873	987.210863769108	187	1719.37856449953	1335.72372967984	140.46560938713	1803.14550272575	861.581128435455	175.976220778044	1877.80950850267	1313.71594024582	129	2442.82993711401	877.354184384639	141	1996.3269127524	1030.2957058107	145	1912.71586453286
832.658593647372	152.514656359372	1414.0537733929	1343.8304687634	212.209390496348	2001.67515698413	837.253378392951	172.898917788843	1476.34824070009	1453.58938549086	151.124861433113	2023.64574900077	988.394306758374	162.263007739192	1855.79843075103	1173.54026397606	140	1768.44819067525	1018.55809461163	139.678671435502	1999.93287651503	1186.18611648767	171.838811376174	1882.33232419676	797.681288045992	153.123127125378	1297.87236947791	1739.85166131996	186.619326760942	2562.23291267623	987.557304459236	187	1720.43706798466	1336.24130054785	140.521672869168	1803.77443403644	862.084961703445	175.988250197392	1879.26443861471	1314.30119777081	129	2444.64084527523	877.682160374388	141	1998.07944869596	1030.7202674199	145	1914.0323451557
832.471850630217	152.545175381674	1415.05516552124	1343.74812381007	212.287886318682	2003.04386915042	837.295404281857	172.917596325812	1477.86622294306	1453.20327197352	151.125647181409	2024.82634390934	989.018491789745	162.250620286609	1856.76838266949	1173.89910786726	140	1768.98374650254	1019.54742939616	139.687173452804	2001.60887412636	1186.67896161274	171.878373820805	1883.08089290994	798.343056325119	153.16356636017	1299.26410600251	1740.48821733745	186.684623048471	2563.06731564512	987.859314227946	187	1721.42963850816	1336.6011610233	140.600736358548	1804.08312730078	862.489321270602	175.995349747749	1880.62033486263	1314.62354209016	129	2445.92021864307	877.865747034765	141	1999.533450783	1030.9512598351	145	1915.10779548305
832.120159329775	152.57617408807	1415.51615236554	1343.42374347533	212.359336307953	2003.7506644368	837.218379550924	172.938843073884	1479.008844738	1452.42421160893	151.121782747027	2024.99565171186	989.611788133867	162.237714077101	1857.44053878372	1174.05295122965	140	1768.86764585677	1020.48526456628	139.694106786823	2002.92473855245	1187.04559231767	171.896009351275	1883.3386159963	798.942056034859	153.200951305239	1300.56969498966	1740.8859708425	186.720408972099	2563.44691135732	988.083879627655	187	1722.27335560064	1336.72636547117	140.689527292496	1803.95857634326	862.780408450262	175.998672777103	1881.82401491944	1314.65650752496	129	2446.58668576232	877.89728214609	141	2000.63639424674	1030.98023290194	145	1915.90418231429
831.620608764047	152.599857668504	1415.36872670043	1342.87604004086	212.407940458138	2003.70970094719	837.044984649786	172.95927654881	1479.71447487031	1451.26929971771	151.110574349447	2024.03074141273	990.129004765936	162.226741810419	1857.78462133464	1173.9559354685	140	1768.07522698672	1021.31534538168	139.703655908445	2003.83538514695	1187.24211329678	171.893891572908	1883.0778268146	799.433505339318	153.231291731438	1301.69579639484	1741.00459628715	186.725774214722	2563.31060715284	988.216838662037	187	1722.93185852015	1336.58523178656	140.774209448794	1803.37414265988	862.976820147986	176	1882.84250219859	1314.43435077111	129	2446.62371005454	877.804210182379	141	2001.37829392576	1030.83819144433	145	1916.41300109691
831.006245946644	152.61144912086	1414.64579848641	1342.15131327177	212.423557464475	2002.95571936506	836.808819911156	172.976220778044	1479.99797234414	1449.79988220241	151.089332408549	2021.98111904352	990.540855579237	162.219123503136	1857.83827605883	1173.60300993292	140	1766.68897846533	1022.00269383331	139.719213231676	2004.37785760298	1187.25537417951	171.87521303594	1882.35846126079	799.788470477909	153.251573979557	1302.58333184909	1740.83808717717	186.703741718354	2562.67096853628	988.257569782848	187	1723.39956539634	1336.18437016956	140.840213068123	1802.36504286331	863.117103998466	176	1883.66629556326	1314.03781240651	129	2446.08050790915	877.639756623157	141	2001.79016091327	1030.58725880059	145	1916.65809639703
830.317829422964	152.607926729573	1413.46197205038	1341.31414076033	212.40409317921	2001.6229046238	836.546421546825	172.988250197392	1479.93310122031	1448.10993964622	151.058624452232	2019.03294945602	990.832531157826	162.215145668354	1857.69326248972	1173.02268784721	140	1764.8750251976	1022.53176744602	139.742969735956	2004.65237736145	1187.09542085265	171.843268898591	1881.30943394118	799.995388888901	153.26026538002	1303.21286251397	1740.40841885167	186.660067367586	2561.6000376958	988.216809648284	187	1723.69931560034	1335.55936998073	140.876263549386	1801.01265489564	863.252106846705	176	1884.30328518663	1313.57621349119	129	2445.05839591549	877.469203563713	141	2001.9320436313	1030.30519048194	145	1916.68461356493
829.598529266631	152.588880662487	1411.9802577017	1340.43487529509	212.353889938011	1999.9095901646	836.28954082343	172.995349747749	1479.62772951294	1446.30641770077	151.020433474926	2015.46553798633	991.003974554654	162.214028330745	1857.45665759104	1172.26839640365	140	1762.83460906752	1022.90691815288	139.775357386182	2004.7911444552	1186.78891577321	171.799310331425	1880.08383137331	800.05891590647	153.258785202002	1303.59344724029	1739.75587265517	186.601594142161	2560.19839853418	988.114041143502	187	1723.86556845912	1334.76432719048	140.877590772283	1799.41967605562	863.426099942444	176	1884.77291491391	1313.15469394711	129	2443.68320305607	877.353301978518	141	2001.87406670402	1030.05981947299	145	1916.54194582866
828.88920022371	152.55790263594	1410.3831778688	1339.57791407544	212.284039039754	1998.03789565183	836.060407249699	172.998672777103	1479.20153967079	1444.49995240116	150.979566525074	2011.60724997515	991.068526157868	162.212792149712	1857.23440359372	1171.40733072892	140	1760.76905501096	1023.15297660516	139.813195892475	2004.93818097623	1186.37231175456	171.742715744182	1878.83086991402	799.995072441946	153.249293063712	1303.76179484742	1738.92830719628	186.534661760099	2558.5868557174	987.971442302648	187	1723.94435937898	1333.86103766128	140.843536097477	1797.70746518457	863.673100745916	176	1885.10192417306	1312.86257941641	129	2442.09665881987	877.339470559544	141	2001.69071694297	1029.90128238767	145	1916.27674822789
828.221918457373	152.52169368696	1408.83766681014	1338.78821918269	212.209390496348	1996.20931934274	835.866802361943	173	1478.75974910025	1442.78520261388	150.941375547768	2007.7819060912	991.052123886539	162.209378078494	1857.10127093322	1170.51558370677	140	1758.84683243152	1023.3094759749	139.853544085403	2005.20972955644	1185.88595377576	171.673127237637	1877.6638153519	799.829074987277	153.235959139143	1303.77167382736	1737.97791169803	186.464011017004	2556.89061896269	987.811408878801	187	1723.9848563144	1332.91182936203	140.779981776254	1796.006366177	864.005133623995	176	1885.33786850092	1312.75394452238	129	2440.4727350639	877.450644585719	141	2001.46953960503	1029.84688889251	145	1915.94719438526
827.622300522747	152.486055931226	1407.48439272048	1338.09220898362	212.143386877018	1994.58871183004	835.707566186943	173	1478.38956807706	1441.2481961505	150.910667591451	2004.28946649471	990.992741981926	162.203395865745	1857.10489597065	1169.67512020289	140	1757.20198313968	1023.43223342504	139.892489880959	2005.69408174136	1185.37884166612	171.592050786346	1876.66224882515	799.592710663181	153.222612748829	1303.69633007066	1736.96079373571	186.392428382691	2555.25539138361	987.655292236137	187	1724.05035250335	1331.97853923075	140.695579236696	1794.46670310565	864.418774374276	176	1885.5435455504	1312.85285856053	129	2438.99896808412	877.689661874631	141	2001.30616794476	1029.88798185573	145	1915.61693179265
827.114320101365	152.45892513398	1406.42574549263	1337.50602279441	212.098630005761	1993.28458650182	835.580046849676	173	1478.15136203239	1439.97048404064	150.89075287345	2001.37882521289	990.937220393395	162.19534428118	1857.27376863704	1168.96856053717	140	1755.93686292191	1023.58214555217	139.927093271276	2006.44253288347	1184.90305205396	171.504050407868	1875.87771318134	799.319423440766	153.211656422661	1303.61670662106	1735.9352696179	186.322205354658	2553.83167540958	987.519939386054	187	1724.20521324055	1331.11892634004	140.599953310026	1793.24279105055	864.896005595304	176	1885.80591302275	1313.15627846452	129	2437.89517460823	878.041183572281	141	2001.31337072208	1029.9975906978	145	1915.37654067404
826.726339751327	152.445682251275	1405.73853558697	1337.04999430079	212.083012999424	1992.36948633497	835.489357043232	173	1478.09282565447	1439.04021095655	150.882867505224	1999.25434959727	990.935585432604	162.186018359229	1857.63036117181	1168.4795426705	140	1755.13403058126	1023.81881401481	139.954626296559	2007.47188157514	1184.52043829316	171.417773967729	1875.35119880819	799.045161756034	153.203483779123	1303.62311660957	1734.96232975178	186.256079004831	2552.78391328328	987.416595333969	187	1724.51823886108	1330.38466217963	140.50192706728	1792.48814098842	865.413827167629	176	1886.22348144125	1313.64892468516	129	2437.38926895057	878.481161375555	141	2001.61069445266	1030.1463388691	145	1915.33756584089
826.48961755535	152.448766140444	1405.47177521184	1336.75232065626	212.099957228657	1991.87790234232	835.449563250396	173	1478.24577736478	1438.54573770131	150.8861026212	1998.06165579489	991.03326347373	162.176557150985	1858.2015351459	1168.27996185666	140	1754.8703266391	1024.18528815315	139.974893555147	2008.77086166019	1184.29175636264	171.344600040119	1875.13093950393	798.807543074364	153.19656291085	1303.80418940307	1734.11457699543	186.197973309524	2552.27152360924	987.355138180837	187	1725.04722863325	1329.82903144727	140.410603659448	1792.33297784799	865.948650672504	176	1886.88603649651	1314.31538044664	129	2437.67985415009	878.984777963894	141	2002.30387991632	1030.31444380943	145	1915.61129905194
826.436555279253	152.467779671921	1405.6578131845	1336.64908822603	212.148037129269	1991.82856292212	835.483033710076	173	1478.63664453595	1438.56337792446	150.898917788843	1997.89392527372	991.263472682038	162.168216612421	1859.03176500685	1168.42498728016	140	1755.22479053591	1024.70116413712	139.988250197392	2010.3189660312	1184.27386376549	171.2962706995	1875.28685241157	798.648082943694	153.188136137596	1304.24824810134	1733.48076774029	186.152604205742	2552.45437193335	987.349559387049	187	1725.84327236221	1329.51360686428	140.332850237511	1792.88652336068	866.483897521142	176	1887.86570965678	1315.15327013691	129	2438.91476601732	879.535503050643	141	2003.47178268978	1030.50285665648	145	1916.29265970551
826.59220444462	152.497543875973	1406.30398928757	1336.77366792708	212.222467521853	1992.21806462846	835.61321562801	173	1479.27690527098	1439.13555855033	150.917596325812	1998.76901285116	991.643086045659	162.161925528035	1860.16470749802	1168.94048587854	140	1756.261695764	1025.3659384344	139.995349747749	2012.08633978641	1184.5092731002	171.282123501785	1875.89528435394	798.609282661953	153.177708750711	1305.02631200969	1733.15843427061	186.126442647784	2553.46593067396	987.417217077057	187.001327222897	1726.93638804286	1329.50420554841	140.275011533574	1794.22181296073	867.01109098197	176	1889.19221447506	1316.17368413708	129	2441.1561174346	880.124480210454	141	2005.14232329026	1030.73037581526	145	1917.42823044925
826.962541403446	152.531429772609	1407.38867621477	1337.1427789657	212.315122959755	1993.0202748415	835.85387198536	173	1480.16139692206	1440.25334449528	150.938843073884	2000.6258098941	992.170063231121	162.159966217385	1861.63731228484	1169.81321494101	140	1758.01630949486	1026.15917270951	139.998672777103	2014.05478237091	1185.01396400586	171.306693279211	1877.0260854767	798.731310291855	153.163833421114	1306.19071199079	1733.24546715036	186.124280624988	2555.41271916397	987.58239473858	187.004650252251	1728.34245963588	1329.86926213752	140.24086894539	1796.38482012902	867.531353452464	176	1890.85649740021	1317.40094237978	129	2444.38795972513	880.7530859212	141	2007.29704511674	1031.02896827873	145	1919.01179667368
827.535211161502	152.561080576259	1408.86475890098	1337.7490963833	212.416990919207	1994.19574614116	836.206025887323	173	1481.27328392322	1441.85824257919	150.95927654881	2003.34094962328	992.826251890063	162.16715368112	1863.45470634553	1170.99083687407	140	1760.46191236518	1027.05274548734	140	2016.20818307544	1185.77485397027	171.368379262075	1878.70846385898	799.042869287724	153.150753626262	1307.75455633578	1733.81454538727	186.148037129269	2558.32835338476	987.868851830731	187.013077025505	1730.04544740884	1330.65734333197	140.232983577163	1799.36870530306	868.052115220563	176	1892.81279538309	1318.85880285056	129	2448.53000218929	881.424625977964	141	2009.87095032418	1031.43097515277	145	1920.98820622221
828.277182219225	152.58178111213	1410.66664211423	1338.55572007875	212.518506407647	1995.69275417678	836.654911392564	173.001327222897	1482.58546466932	1443.84933283818	150.977548000941	2006.75484623583	993.584705253047	162.187962414309	1865.58856689943	1172.39484727085	140	1763.50318521708	1028.01998953642	140	2018.53909701083	1186.75415903084	171.458497418919	1880.91839821462	799.555414620629	153.142588710868	1309.68309916056	1734.89201230772	186.198144125521	2562.14832934616	988.293091731023	187.029756697104	1731.99161410129	1331.87783494034	140.250446563322	1803.09624371135	868.580966660008	176	1894.98989088395	1320.55515676074	129	2453.44893838605	882.140558707938	141	2012.76591336112	1031.95589839348	145	1923.26502637496
829.14225841975	152.592050786346	1412.7154217385	1339.5067335411	212.611970311521	1997.45513522144	837.174529235506	173.005977475148	1484.0628365131	1446.10822020334	150.994227672539	2010.7051513207	994.415760922887	162.225790551206	1867.96901663248	1173.9359157149	140	1766.97828151024	1029.03864738098	140	2021.03294692919	1187.89889525471	171.565207333984	1883.57014726607	800.256382291179	153.145504655385	1311.88944407538	1736.43800941125	186.270366088497	2566.68563136404	988.855141187431	187.057123506049	1734.0820698045	1333.48562141688	140.289065255689	1807.39756082718	869.118842905859	176	1897.2919854965	1322.46445145673	129	2458.96197903146	882.890112144615	141	2015.85260384017	1032.59924621634	145	1925.72324865577
830.070688043574	152.594069310478	1414.92954036479	1340.52514393913	212.691805774605	1999.42913654727	837.725110551798	173.016400054859	1485.66228637932	1448.50009623504	151.011749802608	2015.04836575859	995.287703435898	162.282297225072	1870.48743844806	1175.53050803521	140	1770.67846524003	1030.08686660535	140	2023.64476156136	1189.14925523659	171.674454460534	1886.52377456235	801.105422151196	153.163820351944	1314.23848215125	1738.34898122464	186.358366466975	2571.63667257899	989.533818663994	187.09668595068	1736.17618732917	1335.38146483297	140.343983207936	1812.01167839971	869.655341939055	176	1899.60733053106	1324.51792808559	129	2464.83278815553	883.648148913098	141	2018.97752877664	1033.32639735688	145	1928.22543332131
830.99572171781	152.594758883401	1417.21583355237	1341.52246962703	212.754203688928	2001.55099268899	838.258091807027	173.035529024564	1487.32096620111	1450.88602335368	151.034201801667	2019.64987798993	996.167817082351	162.355846410945	1873.0074839697	1177.10690130621	140	1774.37827169685	1031.13706162318	140	2026.29215504576	1190.44626202396	171.774209448794	1889.60744767531	802.040106481064	153.200706824029	1316.56035225826	1740.46739436298	186.453497395429	2576.61427745773	990.282986488481	187.148233570231	1738.10362085975	1337.42430492028	140.408586863629	1816.60709580859	870.166149385654	176	1901.80503872085	1326.60926006013	129	2470.76425723821	884.37647872336	141	2021.96269256436	1034.07876673235	145	1930.61643741817
831.844856206337	152.59940357343	1419.45121333069	1342.4061895258	212.79789519515	2003.7214112293	838.718257765716	173.064502673146	1488.93776389126	1453.1221386832	151.064502673146	2024.34434801597	997.020208394074	162.439442918267	1875.36594913284	1178.60711963985	140	1777.8550197577	1032.14895337631	140	2028.83302256161	1191.73264475668	171.855285900085	1892.62900387728	802.980474545456	153.256498507523	1318.66621485587	1742.60645473767	186.547480056228	2581.19570830339	991.037928816198	187.20894006361	1739.68044971958	1339.4515664876	140.476826184648	1820.82024255396	870.615743195963	176	1903.74343469428	1328.60518474071	129	2476.41918666314	885.024374955336	141	2024.61792856319	1034.78403957272	145	1932.73609745622
832.548298750332	152.613566247911	1421.48039508621	1343.09568342045	212.822306504859	2005.80200740726	839.052706540119	173.101880377306	1490.3722624801	1455.07301331331	151.101880377306	2028.91193530571	997.799354698313	162.525605958004	1877.38676755462	1179.97589131174	140	1780.90726067131	1033.06174795493	140	2031.07510384581	1192.94865227414	171.913119796848	1895.39833545608	803.83754465266	153.326331287762	1320.37155871754	1744.57403898677	186.630643286268	2584.98378059781	991.719983366726	187.275185256861	1740.73201074442	1341.30193227806	140.543071377899	1824.30472362599	870.962433252384	176	1905.28633459061	1330.36785432888	129	2481.45662722757	885.541306681993	141	2026.76583720675	1035.3719574276	145	1934.43972244739
833.046724702479	152.638410834903	1423.11026309577	1343.53065808237	212.826868843732	2007.60610922589	839.217162079429	173.143560600305	1491.45114932847	1456.61970902806	151.143560600305	2033.05968139442	998.453456535032	162.603543538266	1878.89689847849	1181.15550623526	140	1783.36734152822	1033.80307906893	140	2032.80289319992	1194.03118522055	171.945416474783	1897.7418167186	804.528155269466	153.404609028846	1321.51418900329	1746.20674812222	186.696014817844	2587.66048976861	992.251971957763	187.342124879833	1741.11884401016	1342.84047730127	140.603805396128	1826.77733042387	871.16955711429	176	1906.30721951006	1331.78123252214	129	2485.55998547648	885.884979507224	141	2028.25049874062	1035.79143427867	145	1935.60226590323
833.29985992843	152.671532815854	1424.13684899119	1343.68085007992	212.810710362794	2008.92676527065	839.185620615653	173.183485885345	1491.99587946325	1457.67580314029	151.183485885345	2036.45405080974	998.927977551604	162.663376300399	1879.74614173526	1182.08427372198	140	1785.10616483933	1034.29897918993	140	2033.81474747073	1194.91535821845	171.952516025141	1899.516238396	804.983796216801	153.48176079124	1321.96982418746	1747.38619829575	186.73780363407	2589.01814379372	992.569733007747	187.405129444512	1740.74789475935	1343.97113822451	140.657076954018	1828.05120993441	871.209708546111	175.998672777103	1906.72150048584	1332.76983588176	129	2488.50457867972	886.032381725286	141	2028.9766161426	1036.02143212666	145	1936.15157899731
833.291858001942	152.708656262201	1424.38770639742	1343.5487217286	212.772882225897	2009.57922192647	838.954303298244	173.214979589957	1491.86463270079	1458.19633664747	151.214979589957	2038.78263336445	999.174695933858	162.69708018288	1879.83233440144	1182.70218680803	140	1786.04716044534	1034.48947310305	140	2033.96469085026	1195.53949163095	171.935571795907	1900.62332209152	805.159803946853	153.548151698701	1321.67228260995	1748.05272499204	186.7521796522	2588.98565712443	992.636133193945	187.459098906892	1739.59711575345	1344.64682033627	140.702790459141	1828.0623132323	871.074687146195	175.995349747749	1906.49475962647	1333.31526088383	129	2490.18646436061	885.986157848913	141	2028.92313045987	1036.07790707768	145	1936.07614009444
833.038081128901	152.741481996884	1423.7561375734	1343.1701424436	212.713052522678	2009.43948670217	838.546018995613	173.232357096474	1490.98607611908	1458.19077790313	151.232357096474	2039.81574512603	999.163968705234	162.70120924447	1879.11768067304	1182.96789558947	140	1786.17665746732	1034.34950058806	140	2033.20222510122	1195.86024683305	171.897336574172	1901.02260146273	805.04555300638	153.595997971723	1320.62232096921	1748.2183623921	186.73780363407	2587.6390634561	992.451731108252	187.499044822156	1737.7256575299	1344.88028357677	140.743513910331	1826.88390564052	870.772850156352	175.988250197392	1905.65750983632	1333.44917139326	129	2490.64300636972	885.772582957466	141	2028.15278410368	1036.00050575335	145	1935.43140104298
832.583299513044	152.762180029446	1422.23982804283	1342.61060630862	212.632403786447	2008.48080037837	838.008387689382	173.232357096474	1489.38530245052	1457.72323254199	151.232357096474	2039.47047362597	998.894937942934	162.675400157525	1877.65242199121	1182.87194821364	140	1785.55466106115	1033.89930436406	140	2031.59484638925	1195.86259251357	171.841343850057	1900.74330716692	804.661450331465	153.618805570281	1318.89742520819	1747.95057716354	186.696014817844	2585.19798819203	992.051585401258	187.520779327535	1735.28027607266	1344.73315323427	140.781409330383	1824.72641226668	870.335002571051	175.976220778044	1904.31501846035	1333.25605638784	129	2490.06886577613	885.440482687162	141	2026.82304497469	1035.85372758529	145	1934.34879982862
831.998164557194	152.764214584144	1419.95605660582	1341.95455639832	212.53545063688	2006.79391094415	837.407521262233	173.214979589957	1487.19463919865	1456.90632929019	151.214979589957	2037.84305846975	998.402138364997	162.623906255269	1875.56959167191	1182.4498999999	140	1784.31076687199	1033.20743594817	140	2029.32323826145	1195.56971095156	171.773258189581	1899.88121301594	804.057577994033	153.614243231409	1316.64141799824	1747.36122326358	186.630643286268	2581.986715504	991.500056094741	187.52159260068	1732.47472992196	1344.30259094526	140.818968219936	1821.90307879369	869.806071911292	175.960603771707	1902.64445509883	1332.84855376333	129	2488.79768994249	885.050817708917	141	2025.1734043413	1035.70605658995	145	1933.03160901863
831.369960476746	152.743259918557	1417.13464174766	1341.29818162267	212.429020338555	2004.58127187729	836.819786641201	173.183485885345	1484.63771171545	1455.89018223042	151.183485885345	2035.20722620751	997.752661488536	162.553252383689	1873.08138815709	1181.78317041229	140	1782.63720946786	1032.38350113464	140	2026.6660081231	1195.04561497055	171.701818569705	1898.59667446168	803.306132512058	153.584510026976	1314.05566121145	1746.58577298747	186.548807279125	2578.3973412451	990.878678065737	187.502106352788	1729.57308559695	1343.70572523144	140.856867114757	1818.78760907171	869.243199934896	175.943493326134	1900.87045070326	1332.35236271023	129	2487.24159079766	884.667375480123	141	2023.49083574656	1035.62171457006	145	1931.72479169417
830.789827773292	152.699179379481	1414.08969277544	1340.73304812191	212.322222510112	2002.13197551289	836.319515731219	173.143560600305	1482.00086645631	1454.83939552656	151.143560600305	2031.98315147919	997.037992033935	162.470936622879	1870.45988863552	1180.98873591604	140	1780.77329782113	1031.56091673518	140	2023.96306387525	1194.38666547896	171.636897470866	1897.10128910627	802.490970475074	153.534123413984	1311.36981925486	1745.76089007918	186.459474870577	2574.82339650409	990.27205944883	187.464534907439	1726.84530193859	1343.05988018296	140.893817103856	1815.7497240645	868.705358305768	175.92934612842	1899.23787882709	1331.88099492534	129	2485.82350476707	884.347595601807	141	2022.06806906226	1035.64986860946	145	1930.68191665251
830.334071924287	152.636983280774	1411.16651800467	1340.32969838149	212.224463328309	1999.77410282909	835.963881185651	173.101880377306	1479.58288450181	1453.89570952197	151.101880377306	2028.65655983293	996.356542909092	162.38417555392	1868.00225060526	1180.20017214568	140	1778.97897523338	1030.87219094481	140	2021.57166802359	1193.70753682739	171.588719357054	1895.63565817076	801.700332316416	153.472263845776	1308.81727913243	1745.0119465992	186.374766521834	2571.61484764335	989.756425543333	187.415669258532	1724.53753582196	1342.47299547775	140.927093271276	1813.10844820296	868.247146084877	175.924024233696	1897.96883992326	1331.52157022163	129	2484.89018320208	884.133248706077	141	2021.14999295557	1035.81782455494	145	1930.11313648152
830.045064501856	152.56255288819	1408.67513172192	1340.11675567977	212.143386877018	1997.80754874519	835.778476030407	173.064502673146	1477.63764311976	1453.14321726167	151.064502673146	2025.67868740166	995.790019713868	162.298964478817	1865.97903342188	1179.52888945349	140	1777.4885550915	1030.42244459912	140	2019.80526029819	1193.10795561293	171.565478481213	1894.42799938642	801.013308276535	153.407954775876	1306.60799612837	1744.4354011293	186.305895113062	2569.04446143583	989.387180852755	187.362668985813	1722.84236938612	1342.02865533459	140.954626296559	1811.10068274853	867.910854201171	175.93147632464	1897.22342705315	1331.32611149373	129	2484.64610331725	884.047747753406	141	2020.88781667147	1036.12999052614	145	1930.14067958643
829.925634725038	152.484013648384	1406.8341985551	1340.07823627585	212.082229950902	1996.44787656776	835.753367675038	173.035529024564	1476.32803443552	1452.59198477707	151.035529024564	2023.37511900445	995.389616772178	162.222017089115	1864.58984013905	1179.04130939851	140	1776.46375736503	1030.26957062369	140	2018.88564808789	1192.655113272	171.571341850538	1893.6513798136	800.491728093708	153.350110509718	1304.90534594228	1744.08938420192	186.261319575771	2567.28662039847	989.194058185619	187.314843343015	1721.8776866229	1341.78058038525	140.974893555147	1809.86243384529	867.723443577303	175.954447011051	1897.07954695235	1331.31100591035	129	2485.13295834044	884.095662281043	141	2021.32027210211	1036.57243772089	145	1930.78105589417
829.939386823525	152.407954775876	1405.72278106388	1340.15620368658	212.041506499712	1995.7694105699	835.84715153963	173.016400054859	1475.69029990352	1452.18120429299	151.016400054859	2021.86645897781	995.166590290395	162.157534074733	1863.92427323539	1178.74050730033	140	1775.96074218228	1030.42054287078	140	2018.90674999536	1192.36741777263	171.605403766253	1893.38830659415	800.172413246169	153.305626014291	1303.80429073178	1743.98458458004	186.245267254324	2566.39506250913	989.175270883853	187.279847926965	1721.67351040559	1341.7412376167	140.986922974495	1809.41399946059	867.693184710647	175.992285517344	1897.52423792319	1331.45902757113	129	2486.23574510719	884.262495022846	141	2022.37285985407	1037.1148831749	145	1931.94547663088
830.020245285328	152.341015152904	1405.28396177814	1340.26258358093	212.019054500653	1995.70534449962	835.992759204247	173.007304698044	1475.64169596499	1451.79753909414	151.005977475148	2021.07369856993	995.094192738459	162.111090199082	1863.95061619077	1178.56870159349	140	1775.91467077432	1030.83300774482	140	2019.82661148195	1192.21149548175	171.661893284665	1893.61470948923	800.059892793184	153.277338170757	1303.32212349863	1744.08053256771	186.254764199788	2566.30814938642	989.299308505051	187.261863750145	1722.17005064542	1341.87773032385	140.990699495499	1809.67115737895	867.809298881804	176.042050674087	1898.4603268293	1331.72786006985	129	2487.72777047801	884.520130639951	141	2023.88141753343	1037.71747912753	145	1933.4631430385
830.09307580381	152.286497044585	1405.34811705844	1340.30399217381	212.010627727398	1996.06700297814	836.117305724542	173.005977475148	1476.00561203916	1451.31416272191	151.001327222897	2020.75368709129	995.119518068381	162.086880203152	1864.5277365076	1178.42544731806	140	1776.15602454828	1031.42995824837	140	2021.47692388808	1192.11897264544	171.731577966583	1894.20822818762	800.131232219771	153.264902563101	1303.39907860458	1744.29763929375	186.281499058922	2566.85513447875	989.512463356905	187.262270834983	1723.22392312474	1342.1178185433	140.986922974495	1810.45648205283	868.044063205879	176.097300882979	1899.72621411789	1332.05551582751	129	2489.31941178577	884.829680330932	141	2025.62227077867	1038.33420339923	145	1935.11457473405
