Light	Light	Light	Light	Light	Light	Light	Light	Light	Light	Light	Light	Light	Light	Light	Light	Light	Light	Light	Light	Light	Light	Light	Light	Light	Light	Light	Light	Light	Light	Light	Light	Light	Light	Light	Light	Light	Light	Light	Light	Light	Light	Light	Light	Light	Light	Light	Light
Optode1-730nm	Optode1-Ambient	Optode1-850nm	Optode2-730nm	Optode2-Ambient	Optode2-850nm	Optode3-730nm	Optode3-Ambient	Optode3-850nm	Optode4-730nm	Optode4-Ambient	Optode4-850nm	Optode5-730nm	Optode5-Ambient	Optode5-850nm	Optode6-730nm	Optode6-Ambient	Optode6-850nm	Optode7-730nm	Optode7-Ambient	Optode7-850nm	Optode8-730nm	Optode8-Ambient	Optode8-850nm	Optode9-730nm	Optode9-Ambient	Optode9-850nm	Optode10-730nm	Optode10-Ambient	Optode10-850nm	Optode11-730nm	Optode11-Ambient	Optode11-850nm	Optode12-730nm	Optode12-Ambient	Optode12-850nm	Optode13-730nm	Optode13-Ambient	Optode13-850nm	Optode14-730nm	Optode14-Ambient	Optode14-850nm	Optode15-730nm	Optode15-Ambient	Optode15-850nm	Optode16-730nm	Optode16-Ambient	Optode16-850nm
536.822975088419	141.95927654881	898.329766475214	821.563730591259	220.311600582149	1086.65642500308	592.249800272266	149.727762514231	878.350783386178	1223.17464993856	158.276136516073	1552.39490527664	1188.43476998255	139	2109.95556656752	1071.42940171213	147	1559.01026296967	475.164685376467	134.747013455846	716.325723211095	1158.2552052481	166.930847074603	1610.22693944235	634.196193802798	148.059829703219	887.903154628012	959.905276825131	181.790795644793	1229.77927081137	1159.09878593654	182.730786656065	1907.3612418994	1271.6352851485	146.148210852555	1594.88068248422	945.164691362637	171.667149762489	1872.04299175952	1215.59350372078	134.897590565946	2178.28620070418	786.116734495769	203.748095393693	1514.58346873284	1059.72168407831	139.66714976249	1706.96684217726
537.847067405292	141.938843073884	900.039982206385	823.195674572299	220.515900541708	1088.53904442729	593.37378447047	149.755103196764	880.227926109766	1225.9136142298	158.314760770662	1555.64397640353	1190.15180547438	138.998672777103	2114.82344280976	1073.44537196672	147	1563.24714933046	475.870032082464	134.778859701044	717.861209228353	1161.00196435528	167.07624296519	1616.10871934598	635.524992729268	148.077753421938	890.777900828616	962.044751832311	181.940753804679	1234.47253716761	1161.21707309527	182.844248388075	1912.85389479278	1273.83507527464	146.195235687953	1599.49176392884	946.489561698812	171.756482171038	1875.72515273202	1217.72611974286	134.912946073561	2183.32797693146	787.219610835661	203.922368549972	1517.70888946247	1061.0354718524	139.716556885998	1709.99769495002
538.708652193348	141.917596325812	901.347630380541	824.771417206769	220.745370189975	1090.2692215151	594.39542088598	149.767109898436	881.864278777962	1228.25634304788	158.332112084733	1558.29032666315	1191.62414432301	138.994022524852	2118.92842131853	1074.88321178308	147	1566.18339178045	476.5079492458	134.795803930278	719.213157751586	1162.89770018987	167.190052430612	1620.01972483118	636.713325286053	148.089332408549	893.289899304982	963.652456930488	182.049198027478	1237.98075421428	1163.10779186408	182.943286278563	1917.57850369819	1275.35881647332	146.238758811913	1602.6495891965	947.682149644562	171.81510662327	1878.70854495364	1219.52934281097	134.925766048379	2187.06619629485	788.292416869211	204.102663425828	1520.44554119064	1062.24848294267	139.743259918557	1712.43025437481
539.284256477274	141.898917788843	901.991595511423	826.094361403752	220.967164754753	1091.57567238163	595.193340391494	149.76061193805	883.059240197833	1229.89697255108	158.324226716507	1559.95188664192	1192.6973752175	138.982272722244	2121.75847688304	1075.49502267491	146.998672777103	1567.24493005798	477.019594798546	134.795093356457	720.18617993253	1163.66156399366	167.258047049225	1621.29355023978	637.644391933006	148.090118156844	895.133774694795	964.542228998998	182.100204172428	1239.83440552567	1164.61452640151	183.010433748996	1921.02966541067	1276.01076959865	146.273080547663	1603.85643507359	948.558070511975	171.835540098197	1880.46354862704	1220.70762067989	134.929519851706	2188.67657433582	789.181424051497	204.30204302696	1522.30109015236	1063.16311046546	139.74550985473	1713.74513770884
539.475280797323	141.886102621199	901.78439978904	827.000273481749	221.153196183151	1092.25641138723	595.668981718165	149.734288970927	883.658201002511	1230.60372878624	158.288868577513	1560.38234340994	1193.24918208215	138.958493500288	2122.98187938769	1075.10807918623	146.994022524852	1566.0840044636	477.356519517961	134.777461720224	720.633489226739	1163.09875894191	167.272878307266	1619.52221235703	638.234925673911	148.077736266483	896.108163222474	964.605028313159	182.086575731639	1239.7592256117	1165.64864016702	183.031846713407	1922.92372296646	1275.69942629999	146.29351402259	1602.86802468785	948.951056574596	171.81510662327	1880.58312054421	1221.0142504298	134.917770049098	2187.551559492	789.745869453194	204.534762312527	1522.88178255948	1063.60796884232	139.724708849686	1713.5574188568
539.223074508816	141.881540282327	900.63112704853	827.37554779476	221.281572279406	1092.19402361489	595.75591177281	149.69182293006	883.566521303116	1230.25110631894	158.229028504898	1559.48580531411	1193.19882879705	138.917770049098	2122.47196259872	1073.642965661	146.982272722244	1562.61752799828	477.489024675806	134.744553082922	720.473803637449	1161.11357030053	167.23217201153	1614.5951453471	638.444243324882	148.052740452684	896.141319855327	963.818378954079	182.010080453362	1237.70302007522	1166.19155121185	183.001112564646	1923.22188167741	1274.44097324202	146.297383264146	1599.7181279235	948.733035523851	171.755154948141	1878.84141999785	1220.28526022094	134.885586771564	2183.40426507202	789.87221680933	204.811274792285	1521.94650760532	1063.4543514269	139.683829434088	1711.67257146303
538.515716369777	141.8861026212	898.532212532293	827.172221057042	221.341401982626	1091.35314711088	595.431404664567	149.638188531761	882.74910389181	1228.83424024835	158.150489334665	1557.30148178713	1192.50857180316	138.856613122982	2120.28569811906	1071.11569316386	146.958493500288	1557.00931448241	477.404528660648	134.69814020689	719.694940284699	1157.70919098458	167.138708107656	1606.67929541424	638.276634897372	148.018678536968	895.295917618719	962.234499773797	181.881250128551	1233.82219074046	1166.28370956945	182.920839086678	1922.10461549207	1272.34216489642	146.284568096502	1594.69361906299	947.831312961958	171.662499510239	1875.2165761959	1218.46672621478	134.830716122659	2176.31216445991	789.489140678978	205.136925148206	1519.43051117155	1062.6355649768	139.626796762388	1708.10453127871
537.388523080402	141.898917788843	895.575377205699	826.404948832087	221.331502759498	1089.76594290061	594.715829120047	149.579947550161	881.228091223526	1226.46048640329	158.061970199262	1553.9774217285	1191.18608329394	138.774209448794	2116.62461032379	1067.63213357193	146.917770049098	1549.62429044154	477.108467057178	134.640306310128	718.34675427147	1152.98381379418	166.998063451868	1596.17669384041	637.777040878227	147.981321463032	893.739333898838	959.969985813478	181.715246818555	1228.44475549655	1166.0078848776	182.800287783083	1919.90301846665	1269.58004934255	146.257457979105	1588.26936512939	946.242506102044	171.546152833331	1869.90140243436	1215.62292748479	134.755530911825	2166.71265908139	788.577491465747	205.513286091823	1515.45750723043	1061.15161379014	139.55790263594	1703.07306917309
535.917601767522	141.917596325812	891.923057853028	825.142850348509	221.257255738707	1087.52039976191	593.667504975439	149.520605604248	879.078413151686	1223.32778657752	157.972231602405	1549.74147724801	1189.29155014393	138.673127237637	2111.79035702547	1063.38260055344	146.857940345879	1540.97013641744	476.619979204496	134.573346056932	716.52691493847	1147.13794491761	166.818966320051	1583.67872953123	637.018907530389	147.945932324419	891.705497908583	957.186074490483	181.52815835669	1222.00950209646	1165.46510912123	182.653805538098	1917.01773479067	1266.37098812233	146.220340094979	1581.02394322813	944.036438542409	171.416990919207	1863.26713443466	1211.92908689608	134.666289545141	2155.32806770686	787.177296045204	205.940705152963	1510.31534970667	1059.07134503463	139.482450364162	1696.96318850173
534.20983177722	141.938843073884	887.797037705177	823.493722790514	221.130024435338	1084.74562437568	592.373812729176	149.462016889236	876.427840021837	1219.69138599795	157.890234116525	1544.87885901943	1186.93245021426	138.559229858837	2106.13856226843	1058.62027790981	146.778859701044	1531.6262947278	475.968446182306	134.49807293272	714.361083386604	1140.46796530547	166.611970311521	1569.90625717962	636.094809415921	147.917613481266	889.449877268027	954.074820310897	181.333710454859	1215.00991836755	1164.75806488925	182.499295339162	1913.83938231011	1262.95106006334	146.178400051946	1573.55296276628	941.348146562735	171.286149311173	1855.82341767909	1207.64427628378	134.571067574823	2143.06742621471	785.379842507745	206.421304799702	1504.42126641786	1056.52135015023	139.404175751564	1690.27388640923
532.388720989715	141.95927654881	883.459093556089	821.585672182393	220.964545444489	1081.60284681534	590.939889432373	149.405936251743	873.445805342299	1215.82878419589	157.821705841507	1539.7086412141	1184.26325602329	138.440770141163	2100.05169163471	1053.6473326599	146.684877040245	1522.191507422	475.191770431574	134.41742419649	711.99062436406	1133.35682511378	166.390018639304	1555.66133890509	635.105276819516	147.898132040547	887.210672462926	950.841928222444	181.142588710868	1207.93056832901	1163.98035546569	182.350651984319	1910.68449821929	1259.55617822973	146.136611235721	1566.39148732906	938.362438020789	171.16463362509	1848.14277502487	1203.07682363539	134.482188727497	2130.88779853693	783.318282637505	206.957977843024	1498.25459362851	1053.66823263105	139.329265350296	1683.54160517743
530.579528920931	141.976220778044	879.189147976684	819.550754979301	220.773680392046	1078.27519262055	589.472794013149	149.352052664913	870.333578391006	1212.00160680496	157.769755874719	1534.5711489467	1181.46535205524	138.326872762363	2093.91459907847	1048.77847360006	146.58433630369	1513.22729967775	474.331850226872	134.334587245019	709.556418564008	1126.24216061264	166.168480904017	1541.76361120539	634.149473127133	147.886888369495	885.183372714896	947.690854231923	180.962547826787	1201.20855242352	1163.20691040112	182.218411384109	1907.77250441308	1256.40406429162	146.098803729047	1559.96913984145	935.288172845483	171.06098320283	1840.78636271311	1198.5447727203	134.408840855403	2119.66668233785	781.146771168313	207.552489590283	1492.29013829464	1050.69976024203	139.261846594691	1677.26749374127
528.897566117689	141.988250197392	875.259321287054	817.513437167027	220.569652438548	1074.9581816082	588.074968462862	149.301771879731	867.31062946544	1208.43912164592	157.73613204346	1529.80391414246	1178.73287707888	138.225790551206	2088.10242134932	1044.31796886575	146.486143844604	1505.2280347344	473.433396536288	134.253966033639	707.192856823552	1119.5777997917	165.962560244641	1528.99822627345	633.315747821571	147.881523126872	883.514802291118	944.8087513868	180.798168193471	1195.21136951766	1162.49375165472	182.108640900976	1905.23591787089	1253.68049853182	146.067134401264	1554.60206679198	932.335338380862	170.981147739745	1834.2414236409	1194.34385856266	134.359426490986	2110.10376232767	779.020528837973	208.204151173977	1486.93737815329	1047.80407282098	139.206549909413	1671.85954515086
527.436502690798	141.995349747749	871.90684877494	815.579651954675	220.362668985813	1071.83938484395	586.830548950734	149.256936522406	864.584089664458	1205.31832288195	157.720628367951	1525.71128223319	1176.2468495566	138.143386877018	2082.96403434511	1040.52369639406	146.401106713984	1498.58897767106	472.54283764124	134.180416847766	705.024331354104	1113.77855780182	165.786168347432	1518.04835818943	632.676534583531	147.879013370664	882.304174435663	942.349427647338	180.65586405814	1190.21984932155	1161.87699633231	182.022400247682	1903.14442963199	1251.52463368985	146.042050674087	1550.4910049204	929.688186308614	170.927609120911	1828.8599232699	1190.71453166566	134.337950922498	2102.64657595711	777.07565137523	208.905163977484	1482.48659629539	1045.14639918082	139.166367932825	1667.5828502394
526.261528792311	141.998672777103	869.302299556888	813.829921666224	220.159532940102	1069.07372617451	585.799755184509	149.219362643322	862.322720543076	1202.75534771899	157.721295272823	1522.52173452453	1174.15165495539	138.082229950902	2078.78756224345	1037.57882318286	146.336623699601	1493.57727356662	471.706081992234	134.118280432165	703.157945703242	1109.1621450193	165.64934926425	1509.41870847078	632.280778752296	147.875545651725	881.605313939578	940.420342653555	180.539679763664	1186.41787203472	1161.3755241857	181.957775602627	1901.53082440581	1250.01577763853	146.023779221956	1547.72796816353	927.489998081409	170.899267560083	1824.84543166681	1187.83034796456	134.344600040119	2097.49192911968	775.416835532887	209.642781470414	1479.0977511638	1042.85844681299	139.140854403134	1664.55712344993
525.408684579653	142	867.530905861127	812.321078641577	219.967379413004	1066.76222318968	585.020183552006	149.190261526642	860.634095919327	1200.81349801787	157.73667865157	1520.36095157745	1172.53303833239	138.041506499712	2075.76119265007	1035.56781201451	146.296942341973	1490.30737492796	470.963099049166	134.070480148294	701.676105957726	1105.90122214381	165.556009060599	1503.37127830673	632.149913651591	147.870488314637	881.432672015719	939.069120698325	180.453579967782	1183.88354077408	1160.9926238657	181.911994814348	1900.41035027051	1249.16595448309	146.011749802608	1546.30794677001	925.82934530604	170.892080096347	1822.23974236067	1185.78296897946	134.376093744731	2094.59117794982	774.108040644139	210.398725029298	1476.79340602233	1041.02332040289	139.12829132738	1662.75380563069
524.881907966584	142	866.588552713639	811.077500440104	219.79099788519	1064.94408509159	584.500648119967	149.168667045158	859.555665083454	1199.49699203266	157.762975495821	1519.23607750356	1171.41479485149	138.017727277756	2073.94579710314	1034.47780416735	146.282390700671	1488.73567761197	470.347022393731	134.036856247461	700.628895217548	1104.00846390818	165.50308056689	1499.89507292183	632.278413080033	147.862603015983	881.76271039321	938.286137193764	180.397780625718	1182.58260423962	1160.7246849641	181.880330293739	1899.78139282973	1248.92610753612	146.004650252251	1546.12832055274	924.738138891374	170.90024501174	1820.94987339105	1184.58319512152	134.42542019577	2093.70991681098	773.172238107985	211.151959528564	1475.48872818209	1039.67085670086	139.124454348275	1662.03076724303
524.655503282969	141.998672777103	866.393602832456	810.094476761951	219.63583210583	1063.59505609223	584.226280704016	149.153555464955	859.060436027528	1198.75850510095	157.795276911358	1519.04712593255	1170.75561040827	138.005977475148	2073.26533525354	1034.20354014102	146.287743595014	1488.6717461915	469.876326639351	134.017727277756	700.027466916569	1103.34373085945	165.481852400583	1498.71789344333	632.633349179168	147.851783585223	882.529240435015	938.004196270054	180.36892343645	1182.36941318204	1160.55962172531	181.859088283268	1899.61225225546	1249.19471813995	146.001327222897	1546.99663601501	924.195813151427	170.916269102915	1820.77346973191	1184.16682622387	134.485252957903	2094.47413621802	772.596226416007	211.882112196992	1475.02024726305	1038.78053072262	139.124861433113	1662.16209022109
524.67980372441	141.995349747749	866.808700094687	809.339233442022	219.507383085728	1062.64621389313	584.162663873184	149.142326853007	859.074034735294	1198.50700976583	157.828979115151	1519.61778504749	1170.47011231647	138.001327222897	2073.51543339525	1034.57804902251	146.306940819334	1489.8097409209	469.554622816591	134.010627727398	699.839284095053	1103.65580333905	165.481054234434	1499.36357324435	633.160363512282	147.839401694862	883.628359742339	938.119833645683	180.358366466975	1183.01157935082	1160.48562067949	181.84537917001	1899.83895734472	1249.84323794136	146	1548.65249479381	924.139434458709	170.934192821633	1821.45523957081	1184.41151713327	134.547567969606	2096.44804616121	772.341490491333	212.571964757993	1475.19808606549	1038.29149985993	139.125647181409	1662.89258154829
524.888463712871	141.988250197392	867.673989822036	808.756839056315	219.408678472973	1062.00677230157	584.258235018389	149.131536743178	859.498284488462	1198.61936229943	157.858738512028	1520.7396599968	1170.45229404645	138.001327222897	2074.41472080088	1035.40758853276	146.333117436397	1491.78398281168	469.369302499795	134.013077025505	699.993518373797	1104.64433195651	165.490520180279	1501.25249013605	633.796196955783	147.826011060119	884.929477296064	938.514988080753	180.356267270374	1184.22611229954	1160.49496473941	181.837760862727	1900.36390418736	1250.74156043191	146	1550.80232753238	924.478568732602	170.947526746202	1822.72144962543	1185.16006458121	134.606366366322	2099.1881746139	772.355957264488	213.210238769396	1475.83629270122	1038.1198119842	139.123109969924	1663.97425000103
525.207652836623	141.974893555147	868.830875517386	808.281197215322	219.342145934838	1061.58268353952	584.454309365043	149.118547631051	860.228735636596	1198.96070411311	157.88074007835	1522.20805234029	1170.595505542	138.004650252251	2075.66958829917	1036.50360331508	146.360396331964	1494.23381163975	469.294273081798	134.023779221956	700.395862028374	1106.01349352237	165.504050407868	1503.81528200067	634.477574163674	147.81008620677	886.294630808227	939.084942832916	180.352493808283	1185.73193588492	1160.5896095631	181.835192651623	1901.07600755289	1251.78693512591	146	1553.16406626788	925.113453049184	170.952441556088	1824.33309600009	1186.25110634608	134.657504669079	2102.31474942313	772.586488443883	213.792723531042	1476.78885403672	1038.17997126958	139.115224601697	1665.21273679276
525.568228232898	141.954626296559	870.145046079891	807.846742081334	219.307222335959	1061.29964414736	584.691233386366	149.102409434054	861.170682692118	1199.40319141189	157.893469370443	1523.85582395437	1170.81324978451	138.011749802608	2077.01838018465	1037.71062926188	146.386964857295	1496.85338158866	469.297127564858	134.04072345119	700.942754162441	1107.52060977917	165.520631796693	1506.58013089628	635.152854653155	147.792387159287	887.598738616825	939.753135413092	180.340831919053	1187.29279230572	1160.77906939343	181.839088085624	1901.87019093823	1252.91406448292	146.001327222897	1555.5045825937	925.943744269166	170.947526746202	1826.10470098307	1187.53495152004	134.701035521183	2105.54151233727	772.983730816147	214.319016052682	1477.95690470805	1038.39532142324	139.101082211157	1666.47910433418
525.915695825246	141.927093271276	871.516207330425	807.403849610037	219.302572083708	1061.10811766814	584.920275319573	149.083730897085	862.246923199742	1199.85088132831	157.896792399797	1525.5675939989	1171.04839831348	138.023779221956	2078.28588871117	1038.92143808775	146.411821979605	1499.42947331193	469.344465716389	134.061156926116	701.543999333252	1109.00042626439	165.54265051847	1509.22877839144	635.786153037432	147.772472441285	888.757221777727	940.476915997911	180.321000103671	1188.75936480325	1161.07523658	181.85002942226	1902.67948425151	1254.09467791038	146.004650252251	1557.67938191005	926.885606704729	170.934192821633	1827.92209501867	1188.90245074067	134.737629910783	2108.70269740659	773.508109437757	214.789433918635	1479.28774274635	1038.71687483903	139.083730897085	1667.72121262027
526.217088612807	141.893817103856	872.875294075592	806.926299793935	219.324418657082	1060.98468679487	585.107312567452	149.065807178367	863.396301726899	1200.24684999872	157.893817103856	1527.27411585852	1171.26655592396	138.042050674087	2079.37403524985	1040.0726189418	146.436119888913	1501.83746163109	469.407878406939	134.082403674188	702.131779390538	1110.36074822267	165.574861320854	1511.59484864082	636.359244643598	147.751578164226	889.733057616597	941.239553044302	180.298964478817	1190.07192980107	1161.48281813006	181.869510862979	1903.48225071301	1255.32256215481	146.011749802608	1559.63148611712	927.87271768662	170.916269102915	1829.73833622233	1190.28055813548	134.769813188317	2111.745807362	774.125169566964	215.200971681842	1480.76210782117	1039.11897503704	139.065807178367	1668.954130334
526.462588803901	141.858194337653	874.179575955816	806.415774074987	219.367171973261	1060.92431771332	585.241303277969	149.052473253798	864.570674719083	1200.58187356036	157.887167986235	1528.94127443227	1171.45561762624	138.065807178367	2080.26711894763	1041.13953209524	146.46120361609	1504.03421023542	469.469040070656	134.101082211157	702.670600729955	1111.57371083636	165.619859766032	1513.64192569863	636.864468943695	147.732547156245	890.539855389956	942.030539633478	180.285192539364	1191.24249735743	1161.98505930234	181.898132040547	1904.29630191541	1256.58701023007	146.023779221956	1561.37556886772	928.858034087517	170.898917788843	1831.54879550722	1191.62898927585	134.79983925023	2114.6889538414	774.802314410516	215.545605559295	1482.36788258519	1039.59446579532	139.052473253798	1670.22632605334
526.662499510239	141.824945695083	875.40243343319	805.895848751264	219.425153134827	1060.92995116076	585.32931024604	149.047558443912	865.732273194388	1200.88375121524	157.881452368949	1530.55231562754	1171.62137108161	138.094153476797	2081.01510596455	1042.12595749452	146.488173709593	1506.03568495325	469.521165660614	134.1138973788	703.158379578434	1112.66009120833	165.677510291001	1515.43306649816	637.300319585264	147.719213231676	891.226923088473	942.839431534209	180.290293224352	1192.33643013976	1162.54403722089	181.934990987783	1905.16889445419	1257.86740186895	146.042050674087	1562.97881512534	929.813515814199	170.8861026212	1833.36771647132	1192.92939760359	134.829067028529	2117.57298498247	775.508767838636	215.810231412946	1484.08359930018	1040.1481328249	139.047558443912	1671.59238783946
526.838718977572	141.799136608139	876.523444886701	805.404285593359	219.492445228812	1061.0005909908	585.393112443017	149.053800476695	866.849273724311	1201.202001503	157.88021305943	1532.09027367736	1171.77682488031	138.124861433113	2081.69712946763	1043.04854678067	146.516476542658	1507.88667809364	469.567744545469	134.118459717673	703.614790080664	1113.66443229133	165.743607385931	1517.08150608528	637.666599788679	147.715405711053	891.864687539658	943.647369522569	180.322476501887	1193.43919216597	1163.10022224082	181.977426029031	1906.15585578911	1259.12330940649	146.067134401264	1564.53236591607	930.726489412609	170.881540282327	1835.21056872944	1194.17710794378	134.857673146993	2120.43748241205	776.21396048011	215.982775961655	1485.87361156537	1040.78736730234	139.052473253798	1673.09689940837
527.017663375464	141.785020410043	877.527212272297	804.978195655001	219.563880111087	1061.12415012414	585.460434885306	149.071784653514	867.89580224428	1201.59123284616	157.8861026212	1533.53196156237	1171.9338209388	138.15462082999	2082.40548346184	1043.9218688958	146.545895934268	1509.64287312363	469.617558615872	134.1138973788	704.074858394484	1114.6365187324	165.811065696255	1518.72277488451	637.964256317184	147.72253626103	892.521083413771	944.433748137818	180.382669045515	1194.6318931484	1163.58875579753	182.021246748072	1907.29555301389	1260.30919906537	146.098803729047	1566.12265392097	931.592106569901	170.8861026212	1837.07224865163	1195.36685193107	134.885840763338	2123.28637111826	776.886947815388	216.053313423547	1487.67659190035	1041.51248636142	139.065807178367	1674.75062112594
527.219275757316	141.785020410043	878.408807312952	804.643036710757	219.633201952597	1061.28310301032	585.554313435072	149.100130951944	868.857400701569	1202.08891995476	157.898917788843	1534.85632930074	1172.10052688825	138.180943866686	2083.22525830863	1044.75566729414	146.575909530435	1511.3604456766	469.681306470768	134.101082211157	704.575833231091	1115.62001231717	165.873013177841	1520.4917561372	638.196551362459	147.739646706602	893.249886878943	945.183628807556	180.465876586017	1195.97660653025	1163.95520460755	182.060358759967	1908.59891385772	1261.38894861121	146.136611235721	1567.81872192923	932.414585420801	170.898917788843	1838.92302710025	1196.49960840525	134.911618850664	2126.09187472343	777.502228417359	216.019518499201	1489.41409054014	1042.31942647085	139.083730897085	1676.52809229823
527.454271269018	141.799136608139	879.174347555739	804.406383308982	219.695058046036	1061.45685776576	585.686897078985	149.137938458618	869.733040095833	1202.70909797842	157.917596325812	1536.05202932026	1172.27291752908	138.202278528136	2084.21579948404	1045.54781263217	146.603795026732	1513.08398816897	469.76552512516	134.082403674188	705.145923150671	1116.64147446278	165.923747524246	1522.49749320411	638.372861866311	147.762280360677	894.082747049106	945.893875557779	180.559229858837	1197.51149435633	1164.16643007313	182.090118156844	1910.04472343378	1262.34851114282	146.178400051946	1569.66529801362	933.197859174828	170.917596325812	1840.71425029808	1197.57888727377	134.932865598736	2128.81106720887	778.039011084311	215.88622759306	1491.00468471069	1043.19660527213	139.101082211157	1678.37613271671
527.720511958263	141.824945695083	879.841113962031	804.255467000623	219.745532572406	1061.62389518045	585.856990163664	149.183050304197	870.529801903762	1203.43797313045	157.937515850987	1537.11709291801	1172.43747429622	138.219891700069	2085.39293797272	1046.2878480862	146.628818365381	1514.83881314135	469.871641059199	134.061156926116	705.798052207731	1117.70325825004	165.959820723185	1524.79841757588	638.508119548747	147.784766418268	895.020226414017	946.56943186372	180.649348015681	1199.23641188224	1164.21436857496	182.106709915065	1911.56321113203	1263.19347119415	146.220340094979	1571.66458925156	933.947503253531	170.938843073884	1842.38811736908	1198.61609272106	134.947526746202	2131.40422152784	778.485673294694	215.667069494002	1492.37249773664	1044.12987565598	139.113897378801	1680.22479188848
528.004114339871	141.858194337653	880.433341244961	804.161107299142	219.778766225445	1061.76645387418	586.04913306899	149.232089897587	871.258180223704	1204.23879181425	157.954626296559	1538.06193047736	1172.57560102772	138.236480329804	2086.72253581899	1046.96246484836	146.650427836397	1516.62578322991	469.996244468359	134.04072345119	706.526190312296	1118.78585498433	165.982272722244	1527.385080844	638.62096085188	147.801070831605	896.035300804846	947.220827679881	180.721736194996	1201.11770675408	1164.11442202219	182.10924712655	1913.05212392329	1263.94665364598	146.257457979105	1573.78133110887	934.665560285823	170.95927654881	1843.89739496182	1199.62903930908	134.951114333191	2133.861128391	778.838782859063	215.382042702767	1493.47182148061	1045.10380931476	139.118459717673	1682.00915057294
528.287991135137	141.893817103856	880.971259313983	804.091006021822	219.791581393089	1061.86525570335	586.244299628915	149.281237201061	871.923351098831	1205.07127922648	157.964470975436	1538.89558971556	1172.67048427064	138.255869119543	2088.12785688453	1047.56369178322	146.666432130866	1518.42501603429	470.132951879453	134.023779221956	707.308152991987	1119.85139778992	165.994022524852	1530.17855692456	638.727704174161	147.807553732886	897.076338819514	947.851200323463	180.767026722659	1203.08727369121	1163.89258045819	182.09975498826	1914.38499425329	1264.63006373564	146.284568096502	1575.94168090125	935.352388567046	170.976220778044	1845.21796150875	1200.64118635781	134.942876493951	2136.20817862165	779.106852213951	215.058624452232	1494.29567686881	1046.10381650066	139.113897378801	1683.68338552974
528.555575447685	141.927093271276	881.463818332013	804.017254331319	219.781588615891	1061.89687274195	586.425074717431	149.326618770588	872.518042575426	1205.90487690525	157.964470975436	1539.61623146664	1172.71378979576	138.28160765215	2089.49329465072	1048.09461960265	146.678227922625	1520.19164770462	470.275431687581	134.011749802608	708.110551631771	1120.8540797694	165.998672777103	1533.03306417263	638.836984669837	147.803966145897	898.075092638907	948.451389473618	180.782893121112	1205.04846903212	1163.57500270375	182.082403674188	1915.42894996393	1265.25446775454	146.298710487042	1578.04063363285	936.00221096135	170.988250197392	1846.34395713952	1201.66886664393	134.922443019025	2138.49065295686	779.304267195423	214.726395957811	1494.86968679774	1047.11086901778	139.101082211157	1685.21849978065
528.797566734323	141.954626296559	881.906984525247	803.924746286316	219.74779849872	1061.83570431092	586.582668202112	149.363190442512	873.027000054404	1206.72669580796	157.954626296559	1540.21238840855	1172.70959150628	138.315122959755	2090.69781869877	1048.57200281891	146.685418514846	1521.8743303235	470.419966970196	134.004650252251	708.898433883248	1121.7514008561	166	1535.76650828096	638.948205244307	147.792387159287	898.960818940011	948.995960487881	180.771147918162	1206.88543129458	1163.18095311885	182.061156926116	1916.06876325471	1265.81105390404	146.298164274841	1579.95587050791	936.600519539692	170.995349747749	1847.28276594174	1202.710935777	134.892489880959	2140.75185516599	779.445724986414	214.414439459577	1495.24229485864	1048.1001884088	139.082403674188	1686.60018639015
529.015521364815	141.974893555147	882.28465232577	803.817470886463	219.692233489667	1061.65778355689	586.72199018677	149.387667499386	873.432602330918	1207.54839986222	157.937515850987	1540.66571029647	1172.6689684648	138.355196343117	2091.61806674936	1049.01962044912	146.689094015213	1523.40768724448	470.56255288819	134.001327222897	709.637007325099	1122.51107589752	166	1538.18322904215	639.049644797878	147.778592502158	899.671911659418	949.443216887121	180.740597965815	1208.47370791333	1162.71766514711	182.04072345119	1916.2253657524	1266.26991752016	146.284830350272	1581.55940685481	937.123025243231	170.998672777103	1848.03789896495	1203.74175343807	134.858194337653	2143.00129930482	779.540472394611	214.145921250787	1495.46527758675	1049.0339668892	139.061156926116	1687.81381160033
529.216381143964	141.988250197392	882.574473683294	803.709080364551	219.617854311069	1061.3456170018	586.854512362127	149.397941980776	873.720409716076	1208.38974367275	157.917596325812	1540.95472568201	1172.61045580716	138.398719467077	2092.15915473776	1049.46442399491	146.691823705055	1524.72885038721	470.701029958962	134	710.29618393408	1123.1216333133	166	1540.11372433658	639.124123280336	147.768708268562	900.163385351227	949.74822146867	180.701573867298	1209.69053710107	1162.18631252341	182.023779221956	1915.85937986387	1266.5919336141	146.262538033869	1582.72841212807	937.536507036786	171	1848.58420308475	1204.7073351918	134.824945695083	2145.17602116532	779.587790557112	213.933857743288	1495.56752411628	1049.86502889328	139.04072345119	1688.82322722929
529.408259744032	141.995349747749	882.752835088072	803.614822071299	219.530102549712	1060.88944902357	586.992602903354	149.393379641904	873.882082274323	1209.26320089822	157.898917788843	1541.05931040359	1172.54935023387	138.439992654863	2092.26571938746	1049.92366216801	146.69543400972	1525.77916633109	470.829048021982	134	710.850417704088	1123.58745913547	166	1541.44546301924	639.149847357261	147.766227767251	900.407624408116	949.868402669265	180.663367900461	1210.42848126412	1161.58201592489	182.010422579711	1914.96958728189	1266.73659187157	146.235959139143	1583.36141943202	937.802870033552	171	1848.85937003145	1205.53301201244	134.799136608139	2147.13094172964	779.575991910417	213.780657877832	1495.54015561485	1050.54076714322	139.023779221956	1689.56182068891
529.594827790232	141.998672777103	882.792775707153	803.541580998476	219.436119888913	1060.28301218531	587.140730580132	149.374852331742	873.909817841154	1210.15753383091	157.8861026212	1540.95383062226	1172.49201940437	138.471914074536	2091.92307173413	1050.39514072385	146.702328685548	1526.51129549666	470.938041018815	134	711.274584946571	1123.92062451758	166	1542.13873485641	639.107472708471	147.773153373126	900.395448675063	949.783577476322	180.634002156573	1210.62058691637	1160.90540484062	182	1913.59266080649	1266.68292854245	146.209367778671	1583.39822235988	937.887301337233	171	1848.7780273332	1206.13867756162	134.785020410043	2148.66727828773	779.486463529114	213.678515642665	1495.34248082166	1051.01135014852	139.011749802608	1689.9449394404
529.770268694267	142	882.673139376285	803.480259034997	219.342923045982	1059.52387244806	587.288670285458	149.345839128441	873.796873975806	1211.03217283413	157.881540282327	1540.61313935288	1172.43142965138	138.488749710543	2091.15644216806	1050.85331901518	146.713235756528	1526.89305205074	471.014362352608	134	711.544748794671	1124.13084572361	165.998672777103	1542.22516005419	638.984886233074	147.787298892152	900.132386199296	949.500673182009	180.616894839486	1210.25649776064	1160.16469608027	181.989577420289	1911.79510587738	1266.43521373705	146.185611274391	1582.83789734687	937.770432110221	170.998672777103	1848.23966409897	1206.46336713135	134.785020410043	2149.56464379151	779.303118181036	213.613813384053	1494.90609585689	1051.2487468232	139.004650252251	1689.87955581731
529.921108334022	142	882.376221789815	803.407687759774	219.257284255818	1058.6073466536	587.414531014492	149.310022274767	873.5292378982	1211.82352304227	157.8861026212	1540.00647879178	1172.34289701223	138.485519401741	2090.01550399186	1051.25108984738	146.7252424582	1526.9064879013	471.041486244596	134	711.639020039627	1124.21145533112	165.994022524852	1541.7892850082	638.779725129548	147.802231838163	899.637445028372	949.056554620159	180.61311824891	1209.39049905652	1159.37899011522	181.976220778044	1909.66511393413	1266.02742731103	146.165584884303	1581.74438899454	937.454037748334	170.995349747749	1847.17035744022	1206.48264566346	134.799136608139	2149.65192919954	779.017691733442	213.569745914147	1494.16156809033	1051.25373251295	139.001327222897	1689.30059282268
530.031325522746	142	881.889607140217	803.293962810849	219.183312162058	1057.52706671591	587.489289936575	149.272553528743	873.086706359355	1212.46348514248	157.898917788843	1539.10328550735	1172.19130526649	138.460949624315	2088.54829025445	1051.52772547712	146.733850886471	1526.54161045289	471.004614879508	134	711.536413137239	1124.13930476675	165.982272722244	1540.92957564629	638.502824250449	147.812370201476	898.939428837708	948.507513679234	180.619842610578	1208.12869129984	1158.57506884727	181.95927654881	1907.29972237759	1265.51437716827	146.149426403365	1580.23276948679	936.961579671549	170.986922974495	1845.5387582636	1206.20979245613	134.824945695083	2148.84498984995	778.631411641896	213.529566637332	1493.05515827631	1051.05582688998	139	1688.18654531972
530.087910195445	142	881.214556005003	803.113531241365	219.122582951003	1056.28062504123	587.491125932279	149.23892489031	872.452428737388	1212.90261920809	157.917596325812	1537.88786858701	1171.94509105648	138.417968370865	2086.79885259757	1051.63168214935	146.73229316447	1525.80041747487	470.895196867387	134.001327222897	711.227101308197	1123.88386637239	165.959820723185	1539.73533221564	638.17337731078	147.811856251725	898.080749894371	947.910688857483	180.632949860707	1206.61006644389	1157.77964466008	181.937515850987	1904.79984279861	1264.951389591	146.134859772532	1578.45076956511	936.337013229098	170.970243302896	1843.37442606535	1205.7005685875	134.858194337653	2147.17149588389	778.159396225673	213.479654353729	1491.56714550236	1050.71360915794	139	1686.57271731773
530.086389590498	142	880.363508524098	802.854290799452	219.074233951621	1054.8747463957	587.412307145306	149.213071558936	871.620793569175	1213.12652539037	157.938843073884	1536.36883136678	1171.5845420331	138.363994170883	2084.79532545042	1051.5319368521	146.716134683532	1524.69278143424	470.715080487782	134.004650252251	710.714731202553	1123.4211037037	165.923747524246	1538.26227068743	637.819204281261	147.799315893647	897.109174082564	947.313037239863	180.646532402396	1204.97173904119	1157.01859462694	181.911618850664	1902.25547327063	1264.38392717277	146.119874853948	1576.54139147974	935.637941395619	170.942876493951	1840.77214864412	1205.03391648086	134.892489880959	2144.76953163068	777.627506398054	213.410065092137	1489.72917358346	1050.3004552236	139	1684.5554629603
530.033790768487	142	879.368692412002	802.525288400424	219.033623900832	1053.33262477528	587.2664976362	149.196646086627	870.609387564512	1213.16642478711	157.95927654881	1534.5898020966	1171.11737263883	138.30763212057	2082.56566577214	1051.23511426647	146.684426607508	1523.24759446184	470.479392495868	134.011749802608	710.022409815526	1122.75514062684	165.873013177841	1536.54352905562	637.468678158671	147.77633483784	896.076678142357	946.738421852764	180.655254732905	1203.32027453117	1156.30881115068	181.882517733985	1899.73882660891	1263.83265536083	146.102409434054	1574.61459356491	934.922982879747	170.901986826423	1837.883995857	1204.28913921669	134.922443019025	2141.85829736476	777.065582759901	213.317295548411	1487.62656819167	1049.88584809254	139	1682.27685886001
529.948853969099	142	878.28404884525	802.156044607347	218.995349747749	1051.70183107497	587.086263370969	149.18963417649	869.469490660382	1213.09163152088	157.976220778044	1532.63927837349	1170.58328619422	138.259194186724	2080.15576481721	1050.78966045967	146.640399785728	1521.5209640955	470.214712391071	134.023779221956	709.195934530276	1121.93254671682	165.809738473358	1534.60876642575	637.148674950814	147.746836939685	895.03501724605	946.191426367108	180.653640234697	1201.72465560811	1155.66334827891	181.849246373738	1897.3098195071	1263.29934627076	146.082403674188	1572.7400055535	934.24738628126	170.847116177518	1834.88915030411	1203.53489825993	134.941549271054	2138.68438265852	776.508087776278	213.201025774292	1485.38364093495	1049.52835628343	139	1679.89565294708
529.857493861485	142	877.180661098372	801.793729341116	218.953299073663	1050.05176164553	586.916407441021	149.19066861148	868.286132063057	1212.99653224782	157.986922974495	1530.64524496475	1170.04486100226	138.225790551206	2077.64651580206	1050.2779277344	146.59010863115	1519.60529817124	469.954728527676	134.04072345119	708.299643042955	1121.04090981891	165.737629910783	1532.51247472927	636.882984976746	147.716291724938	894.035441084167	945.663499112946	180.639070059522	1200.20922226298	1155.09159427566	181.811060134033	1895.01758556896	1262.77240747885	146.061156926116	1570.9423135936	933.655355256508	170.779310133782	1831.97032071021	1202.82128758738	134.945136858043	2135.48817388704	775.987641064528	213.063497321483	1483.15222010013	1049.26549508492	139	1677.56769996007
529.789156061227	142	876.141506711792	801.492510949858	218.901986826423	1048.46717422317	586.802066219077	149.196671504077	867.167247144283	1212.97926912424	157.990699495499	1528.75871837107	1169.57486356168	138.20973822976	2075.1612105589	1049.79907289822	146.541323295573	1517.62876407297	469.734233660945	134.061156926116	707.412373339926	1120.19800016791	165.66243745904	1530.35464699307	636.691009160272	147.687431476758	893.125218318389	945.147890746824	180.609857340328	1198.76506991617	1154.60486025426	181.766494966138	1892.90448228382	1262.24375031749	146.04072345119	1569.21412220704	933.173244749041	170.701035521183	1829.27530069043	1202.17148030052	134.929799468446	2132.45234690226	775.530203724631	212.905379517655	1481.07550101913	1049.11110847138	139	1675.40996586746
529.767652414091	141.998672777103	875.244764084507	801.299962521221	218.836693597807	1047.03151324006	586.777485923682	149.203395865745	866.221767121814	1213.11584426665	157.986922974495	1527.12409424429	1169.23786304262	138.209390496348	2072.85524003271	1049.44561820302	146.500734234146	1515.74311569881	469.580315538689	134.082403674188	706.615781642592	1119.52075811413	165.590308216616	1528.27673476276	636.586095466198	147.661110236143	892.346198602616	944.64232872318	180.56739477423	1197.36481439006	1154.21711201638	181.713850688827	1891.0114596053	1261.71576450865	146.023779221956	1567.53417208423	932.813009943707	170.61582444608	1826.91026560762	1201.59402751169	134.892686321921	2129.7016120633	775.15515007911	212.724988466426	1479.27723737831	1049.06018588037	139	1673.49884352691
529.80579217741	141.994022524852	874.551470742401	801.245853931476	218.755530911825	1045.81333449255	586.857311472222	149.208050855597	865.538599905636	1213.44361612711	157.974893555147	1525.85540896611	1169.07894729384	138.220342132806	2070.90226932007	1049.29033625157	146.471760585564	1514.11201629784	469.51196837949	134.101082211157	705.983298383453	1119.10588928077	165.528085925464	1526.45596843424	636.57766388577	147.634529175494	891.734272784665	944.164218381088	180.512876665911	1195.98614074535	1153.94916729896	181.651880489565	1889.38646542075	1261.21545788759	146.011749802608	1565.89561939259	932.572796578741	170.527736154224	1824.92857069141	1201.08961913662	134.834039152013	2127.29850282964	774.874213125012	212.518246853651	1477.84412352034	1049.0969927415	139	1671.86638599259
529.902779385509	141.983599945141	874.092210835638	801.33453633823	218.660312069993	1044.84625321913	587.034230318778	149.206814674564	865.165587546793	1213.95288626462	157.954626296559	1525.00838763966	1169.11658942754	138.237357119964	2069.46637705406	1049.37063572966	146.455842973125	1512.88832248289	469.534949435297	134.1138973788	705.570467880662	1119.00757536326	165.482276640875	1525.07520551857	636.664051997996	147.603805396128	891.308274422022	943.738869968278	180.450267086627	1194.62261693912	1153.81652993542	181.580476606909	1888.06959008226	1260.78118019636	146.004650252251	1564.31226930319	932.442704558807	170.44209736406	1823.33947769392	1200.65964902164	134.756858134722	2125.2607001576	774.692684116581	212.282287714508	1476.81874855351	1049.20225096025	139	1670.51028164548
530.041506499712	141.964470975436	873.866592528545	801.541448367144	218.554667519964	1044.13097633472	587.279667348046	149.197628275886	865.103432140153	1214.5888318392	157.927093271276	1524.58185289114	1169.34821104792	138.25473462648	2068.67265088095	1049.69395902542	146.451198283096	1512.19529242546	469.646662073626	134.118459717673	705.407420277418	1119.23295624337	165.457973924393	1524.29199523496	636.836306768085	147.56694637932	891.074920545393	943.405318385136	180.382581270079	1193.30652076148	1153.83299143805	181.50112890113	1887.10637572161	1260.46535032875	146.001327222897	1562.84393090138	932.410140460789	170.363016719226	1822.13332663349	1200.31312539797	134.664962322244	2123.59721151838	774.611254369656	212.017123514742	1476.21283245767	1049.36128041895	139	1669.41934136253
530.198505066046	141.934170103957	873.846515392679	801.82559506107	218.445332480036	1043.63671511172	587.556099559316	149.179616643789	865.309829142245	1215.27496175043	157.893817103856	1524.52179510432	1169.75501906145	138.269213343935	2068.5956826131	1050.24144269436	146.452263648132	1512.11566938155	469.837616835527	134.1138973788	705.498424448147	1119.74756667387	165.457973924393	1524.21444220052	637.0788241905	147.524483882794	891.028167716055	943.203580999529	180.315908708051	1192.11100013656	1154.00501467154	181.418318142104	1886.54033755686	1260.32047419542	146	1561.59158070489	932.468562627782	170.296170368268	1821.29378809518	1200.07514360273	134.567744545469	2122.32783441533	774.629214584181	211.728400164205	1476.00960441463	1049.57290072308	139	1668.58772633726
530.345567981212	141.892142147546	873.985420102652	802.13709492315	218.339687930007	1043.31381281775	587.821590437489	149.15462082999	865.713880187568	1215.92777516393	157.856867114757	1524.74157643897	1170.30926393776	138.279482263103	2069.22225048151	1050.97847907592	146.453046962692	1512.66294035419	470.094560864881	134.101082211157	705.819732427263	1120.48617411834	165.482276640875	1524.85903159148	637.371824263338	147.479742129164	891.146603941058	943.163693042079	180.254747044334	1191.12854096722	1154.32525408523	181.337150718522	1886.39100634989	1260.38610055056	146	1560.66868877749	932.61658906751	170.244990278835	1820.79873325504	1199.98218701205	134.47508917714	2121.47874588311	774.744675247203	211.42741906114	1476.16362088072	1049.84920245962	139	1668.01196243801
530.460587435222	141.840039344837	874.228839309629	802.433578659512	218.244469088175	1043.1056377152	588.043336962019	149.124861433113	866.229983298675	1216.48348902243	157.820295442833	1525.13905625193	1170.98494246741	138.286693485548	2070.46666847818	1051.86418159957	146.446921339598	1513.78401537399	470.406112299696	134.082403674188	706.328966655148	1121.36870940547	165.526758702567	1526.1422376457	637.694714212173	147.439979585694	891.399263833824	943.295635339981	180.20322688006	1190.44424822445	1154.77354587541	181.265711029073	1886.6443528396	1260.6767677185	146	1560.17039167627	932.857054524366	170.213333416797	1820.6274236397	1200.07331836216	134.398138658952	2121.08137880271	774.952031792277	211.128560426151	1476.60897827191	1050.21299441091	139	1667.695586469
530.530691619832	141.780985090091	874.513702890762	802.686622517264	218.16463362509	1042.95220011204	588.200681969255	149.094153476797	866.770262372486	1216.9056504077	157.786059582633	1525.60216677115	1171.74743492406	138.29177145286	2072.15414737621	1052.84710443268	146.429455919703	1515.34338930304	470.759480421869	134.061156926116	706.964141459312	1122.30195336137	165.584330741468	1527.86994797236	638.028437736202	147.412622183581	891.746592192436	943.58167476863	180.165040709928	1190.10546977898	1155.31718873134	181.211741636265	1887.24309065921	1261.17565640294	146	1560.13676469489	933.191918054054	170.203073994512	1820.75217260593	1200.37848037605	134.347132514003	2121.15248661881	775.241071185787	210.847854330295	1477.26312088643	1050.68542100301	139	1667.6364865609
530.55406375695	141.720517736897	874.77699615969	802.886551805368	218.102663425828	1042.79595140611	588.287564872182	149.065807178367	867.252936043614	1217.18660953277	157.755263712939	1526.01640842737	1172.5561181841	138.298443288156	2074.06106711112	1053.86530856445	146.400590864349	1517.146533255	471.140644517846	134.04072345119	707.656447566038	1123.18806341371	165.644710181284	1529.76673098586	638.354564083793	147.404429743338	892.136250389664	943.977015710568	180.140854403134	1190.09249896588	1155.9118855157	181.182360902846	1888.07243405459	1261.83186042244	146	1560.52053420788	933.620429757744	170.213761131858	1821.13420963301	1200.90885447697	134.327940027283	2121.67281478304	775.599344315105	210.599364239907	1478.03772014636	1051.28431594158	139	1667.82188824591
530.538156834051	141.66576252622	874.962287142264	803.040612958078	218.058450728946	1042.58584038874	588.312366282845	149.042050674087	867.611803368636	1217.34679661809	157.726569681097	1526.27763478089	1173.36117438184	138.309238960207	2075.93767248236	1054.84764774257	146.363994170883	1518.95892317878	471.53176093321	134.023779221956	708.334831489016	1123.92967353239	165.696123411071	1531.51643364682	638.658372752514	147.418572133879	892.507953194143	944.418750732709	180.12829132738	1190.31783245492	1156.51120658515	181.1815476297	1888.97710308579	1262.57045751807	146	1561.19153212683	934.12928750411	170.244469088175	1821.7165577865	1201.64203266448	134.341155038855	2122.5716196977	776.00713021971	210.394283873077	1478.84207777828	1052.00891705564	139	1668.21611127239
530.499394593396	141.624082303222	875.020238908244	803.169024323345	218.029756697104	1042.27303823516	588.295633838784	149.023779221956	867.79416749263	1217.42077683336	157.696473182311	1526.28720575505	1174.10195695785	138.325009627087	2077.55291756085	1055.71454709178	146.325009627087	1520.54929635294	471.910223777133	134.011749802608	708.93549027885	1124.43589866121	165.727508522456	1532.82009099765	638.925675480068	147.454655702213	892.800091084106	944.834473554165	180.124454348275	1190.64181214642	1157.06577457497	181.210007328531	1889.78478967599	1263.29954437398	146	1561.9563762389	934.697457661171	170.290560423239	1822.42649182923	1202.52851930745	134.380411381197	2123.73299386083	776.443331111358	210.236039407631	1479.59526978392	1052.84132869919	139	1668.76569550558
530.457711670623	141.600207301801	874.923795682441	803.299238754532	218.011749802608	1041.82437145887	588.266048452031	149.011749802608	867.774412323728	1217.45251751004	157.660312069993	1525.97742307039	1174.71790839846	138.34677032491	2078.72710152502	1056.39060003414	146.292015114233	1521.72611857717	472.250073012573	134.005977475148	709.409022467845	1124.63397539887	165.729626300823	1533.44555464182	639.146015505475	147.509120093237	892.953699155338	945.157569815074	180.124861433113	1190.8936983239	1157.53358250206	181.264925280777	1890.32502386786	1263.92821257314	146	1562.58574548006	935.29317314481	170.344921911352	1823.17658885561	1203.49335209107	134.433582677428	2125.00697036994	776.883896708258	210.122409227717	1480.2312170842	1053.74738597534	139	1669.40110459769
530.43234046062	141.596884272447	874.668433322608	803.455590625828	218	1041.22153204575	588.254832050422	149.004650252251	867.550315538913	1217.48020734746	157.615052472376	1525.31217104117	1175.1593983526	138.37251366469	2079.350192011	1056.8225724126	146.270366088497	1522.36506692728	472.527519596089	134.005977475148	709.724491695198	1124.4853991351	165.69795697304	1533.26049187418	639.312440751898	147.574302690798	892.926380163108	945.335270825162	180.124319958512	1190.90791617218	1157.88217896673	181.33836070711	1890.46704715996	1264.37994742793	146	1562.86602493246	935.876936920173	170.399784832112	1823.8750701506	1204.44924941158	134.486841817464	2126.23317311524	777.303590863241	210.041506499712	1480.7019990077	1054.67968460797	139	1670.04665546494
530.438108050479	141.612332500614	874.275741930219	803.654838965683	217.989577420289	1040.46791974988	588.288958356565	149.001327222897	867.147560375042	1217.53198261238	157.560106648996	1524.29981404699	1175.39937121974	138.399525499313	2079.39557403008	1056.98790397725	146.263168255366	1522.42909632229	472.724987217857	134.011749802608	709.873147827033	1123.99534731267	165.632947960822	1532.25063861982	639.421790760879	147.641633533025	892.695441036484	945.336754089204	180.117132494776	1190.54959567355	1158.09449026265	181.420226035183	1890.13283158845	1264.60559911434	146	1562.63042711563	936.40860399731	170.445078488262	1824.4417385323	1205.30985837112	134.526225697477	2127.27478419673	777.679501191013	209.977548000941	1480.98393446308	1055.58735938272	139	1670.63647098085
530.481770301804	141.640656081367	873.793917553321	803.900945961483	217.974893555147	1039.5941757631	588.386822607201	149	866.622460010326	1217.61564309307	157.498160846098	1523.00005809454	1175.44536367573	138.424797801366	2078.90420506835	1056.90768528074	146.270547422464	1521.9623494697	472.836222643916	134.023779221956	709.863328651197	1123.22125154497	165.541502581081	1530.5118644638	639.47449374803	147.700506602378	892.263239924035	945.156932125279	180.097497323942	1189.74109814288	1158.16955275185	181.497544013915	1889.31072629949	1264.58976423208	146	1561.79114714318	936.849914176938	170.472437569062	1824.81696484896	1206.00449277855	134.542817386124	2128.03242136337	777.991130769165	209.913324944535	1481.07459418721	1056.42231453688	139	1671.11866594194
530.559592047929	141.675144033456	873.289837466998	804.182096611249	217.954626296559	1038.65741731435	588.551698279765	149	866.056217049919	1217.71894337786	157.43548780116	1521.52115352521	1175.33966946034	138.445876654411	2077.99103951228	1056.64634842181	146.290039232578	1521.08950317361	472.86895199571	134.04072345119	709.722682488291	1122.27448332322	165.436119888913	1528.24790165576	639.472878353293	147.74193269566	891.659508904298	944.819296118621	180.060902934342	1188.48055557283	1158.12453334739	181.557648644165	1888.06475755635	1264.35585701628	146	1560.36477494158	937.173508741464	170.476999907935	1824.9788098158	1206.48997985362	134.532272834503	2128.46914718696	778.225826202425	209.834161123923	1480.99855130403	1057.14743388194	139	1671.4712732619
530.662009694353	141.708078361366	872.840909435448	804.480901545351	217.927093271276	1037.73552279494	588.773902866759	149	865.545887611043	1217.81866156831	157.380411381197	1520.00978264938	1175.15949165707	138.459186820271	2076.82063775469	1056.30553778705	146.316315792888	1519.99432016216	472.843536097477	134.061156926116	709.490618186844	1121.31095470919	165.330195791717	1525.74581876104	639.424005463476	147.759564331893	890.936258779931	944.376387609616	180.006151198434	1186.84690882145	1157.99403099436	181.590897286735	1886.51975631548	1263.96685718129	146	1558.46843339204	937.370671464347	170.456566433008	1824.94499246963	1206.76152807334	134.497289884198	2128.61032305624	778.382501535442	209.733485997604	1480.80348403789	1057.74693893236	139	1671.70108781094
530.7764313923	141.733856448692	872.526437573944	804.778025814083	217.893817103856	1036.92140977137	589.032388425221	149	865.191930597412	1217.88841136746	157.34057713802	1518.63487470748	1175.00085900516	138.463121808991	2075.6028934305	1056.0086967083	146.344237851026	1518.90305131264	472.789947775725	134.083730897085	709.218512725795	1120.50762899725	165.238867576711	1523.35282459585	639.33757779653	147.750430226838	890.165873575803	943.904532630217	179.935497326854	1184.99740107172	1157.8249171292	181.592224509632	1884.85319463877	1263.51571163122	146	1556.31248047606	937.453332120853	170.41381311683	1824.77135798563	1206.85596540599	134.443476338334	2128.54190930593	778.472904199455	209.611970311521	1480.55395761468	1058.2281001997	139	1671.84385492975
530.891378105571	141.7503364852	872.410002503013	805.061512910893	217.858194337653	1036.30155354261	589.301069888955	149	865.077094162646	1217.91170368821	157.3212712509	1517.55435148702	1174.96276958183	138.45734948153	2074.57398807221	1055.8800308293	146.369173479882	1518.05792941836	472.741597617314	134.107059686304	708.96606558959	1120.03407229211	165.173143574122	1521.43571322796	639.228771675408	147.717702774928	889.433893086319	943.491475897114	179.856439399695	1183.1450024184	1157.66827960659	181.563626119313	1883.2693785874	1263.11256941044	146	1554.16711933912	937.453189327221	170.354418856816	1824.52728991412	1206.84588642341	134.379519739448	2128.37689291473	778.519802271786	209.475498961751	1480.31538795405	1058.61974610096	139	1671.94295361043
531.001198395355	141.75911579904	872.532200902456	805.331656578784	217.824945695083	1035.94650769085	589.55471797793	149	865.253110401753	1217.88974093397	157.326328587988	1516.89358421666	1175.12670375716	138.441385073462	2073.96323542806	1056.02073741915	146.3886549206	1517.68037549564	472.731579215151	134.130297433659	708.795334720575	1120.01892354962	165.13935345695	1520.32421306506	639.115478593472	147.669260033908	888.823928698293	943.224856660621	179.779136410495	1181.51856253981	1157.57233642883	181.513944068774	1881.96315492332	1262.86499610309	146	1552.31143497073	937.417586800117	170.287214676209	1824.2864824772	1206.82534908337	134.313795736858	2128.23718519548	778.553768233325	209.333710454859	1480.14643202902	1058.96696438003	139	1672.04163742534
531.105646983765	141.763607583574	872.897388308117	805.597680390138	217.799136608139	1035.88891103205	589.773847259701	149	865.724468285706	1217.83656463232	157.355660269804	1516.71198716852	1175.53627131446	138.416903005829	2073.95737783835	1056.48450480984	146.403281805949	1517.93288977089	472.782818721652	134.153988742237	708.760719455551	1120.51649162334	165.139519673289	1520.2508607721	639.016226331572	147.616353364885	888.403785565338	943.168087209765	179.714366538463	1180.3268890113	1157.56898463535	181.457082282644	1881.09155609444	1262.85149287713	146	1550.9850809548	937.399225941775	170.220689866218	1824.11226690989	1206.89108930717	134.252634003568	2128.22631328123	778.608339728672	209.195248105807	1480.09121479154	1059.31901451501	139	1672.1702276784
531.207612840713	141.768620355184	873.475796229564	805.874173533083	217.785020410043	1036.12261881936	589.94646698823	149	866.451205634347	1217.77485029206	157.405500670595	1516.99836275071	1176.1887280289	138.387420097206	2074.67952586487	1057.26744040937	146.417441351945	1518.89825313404	472.907255914473	134.178400051946	708.90502449144	1121.49670382764	165.169283877341	1521.31822197844	638.948682145697	147.572407215573	888.213978959364	943.3583262715	179.67121094462	1179.72072374814	1157.67547807828	181.408840855403	1880.74832405653	1263.11427377873	146	1550.34964904803	937.45069568488	170.16463362509	1824.06056459001	1207.12542077959	134.199362445678	2128.42434997167	778.713951616411	209.067151556718	1480.18155121934	1059.72340230669	139	1672.35182815198
531.313121591076	141.779042934895	874.212045538494	806.177450445283	217.785020410043	1036.60553704486	590.069777485401	149	867.359813954269	1217.73021212456	157.471224673185	1517.68156890723	1177.03841174451	138.357845276314	2076.15272763403	1058.31035904767	146.435681874029	1520.55520499689	473.101538443329	134.202962588463	709.245952066577	1122.85465626375	165.222017089115	1523.46894211808	638.92462799671	147.548013061319	888.254339285112	943.791505598336	179.65639997052	1179.76730095262	1157.88497698738	181.383205712942	1880.94471019769	1263.64433929302	146.001327222897	1550.45670758781	937.611754604583	170.126442647784	1824.17467335437	1207.5795659572	134.155403878512	2128.87572913067	778.893059685103	208.953237022463	1480.43334780254	1060.21307447103	139	1672.59749372227
531.428517078344	141.796482162345	875.039837057804	806.521303998721	217.799136608139	1037.27550840505	590.150592300028	149	868.360018761011	1217.72518116302	157.545175381674	1518.65489922429	1178.01154375842	138.331261156752	2078.29801066615	1059.51745249439	146.461487832488	1522.78886876643	473.351904738163	134.225964274493	709.774650595743	1124.43656877293	165.287214676209	1526.4985132124	638.950263626406	147.551336090672	888.493170230389	944.430043166141	179.672538167517	1180.45000086539	1158.17535218684	181.389096953399	1881.62458337183	1264.39019650511	146.004650252251	1551.25810471003	937.910816629267	170.110923982744	1824.50062353871	1208.2743153772	134.118809488912	2129.61162551056	779.160436905238	208.855488140483	1480.85938740217	1060.81043516032	139	1672.92627207569
531.559050573328	141.820295442833	875.888724838753	806.911898704618	217.824945695083	1038.0590802397	590.200046284808	149.001327222897	869.361155552183	1217.77430527964	157.620932997155	1519.79013038353	1179.02462108056	138.310626368047	2080.95117653053	1060.77850872652	146.495317504379	1525.41457879036	473.6375381997	134.244642811461	710.456423654377	1126.0763914741	165.355746079713	1530.09680589084	639.025582739769	147.584157018181	888.876033194835	945.210452105412	179.719016790713	1181.67562341157	1158.5149378272	181.428208965294	1882.6813133525	1265.27067097943	146.011749802608	1552.62105511613	938.359383653869	170.120670320324	1825.08666764323	1209.20008668243	134.088381149336	2130.65894981735	779.519679387377	208.773491551132	1481.46825265865	1061.5237613873	139	1673.37404175382
531.707155316018	141.846444535045	876.699126643768	807.349662731913	217.858194337653	1038.89029899028	590.230651002603	149.005977475148	870.288010213545	1217.88352898079	157.691040656533	1520.97099915593	1180.00128295669	138.295882317962	2083.88047078711	1061.9935541563	146.532906822141	1528.205018516	473.936824549751	134.255703041147	711.235370454301	1127.62786662508	165.419790591978	1533.89333373511	639.146303180673	147.641459809738	889.342451081175	946.053857523354	179.790886213103	1183.29495410175	1158.8709360467	181.494570617858	1883.98918266279	1266.19382394708	146.023779221956	1554.36342758998	938.951616307501	170.153931428639	1825.97680713636	1210.32326494767	134.062484149013	2132.04408251608	779.963431068598	208.705950065031	1482.26476191713	1062.3500817828	139	1673.99005954388
531.871968226616	141.870037881899	877.425371207131	807.82827402062	217.893817103856	1039.7181672394	590.252960415937	149.016400054859	871.087722835461	1218.05163663195	157.74990117009	1522.10301167352	1180.89167755577	138.285459738251	2086.83879348336	1063.09082534319	146.566158593197	1530.93507175285	474.232357096474	134.25613631843	712.047226723756	1128.98609464181	165.472966487867	1537.52096249395	639.305558786147	147.714633737349	889.839713809393	946.881385440082	179.880218621652	1185.12484575713	1159.21847819369	181.577236753332	1885.42338463801	1267.07365117312	146.04072345119	1556.28259228608	939.664366312656	170.208395889235	1827.1942223446	1211.59294046737	134.042050674087	2133.78248414725	780.474822683676	208.64881625916	1483.24053145411	1063.2770261971	139	1674.82899701176
532.046566536574	141.886369820086	878.03037648849	808.334401103879	217.927093271276	1040.50410978419	590.272103096006	149.035529024564	871.72509175686	1218.26542942952	157.793338418499	1523.11446004416	1181.66350607943	138.275097343483	2089.58471967452	1064.02332664105	146.585295775272	1533.4002911698	474.51051213668	134.244106899082	712.82432039956	1130.08375473258	165.512528932499	1540.65659649044	639.495336510926	147.791936726549	890.33138567889	947.623856564788	179.976220778044	1186.97321391433	1159.54281738612	181.661097818289	1886.88306465713	1267.84339849362	146.061156926116	1558.18620290091	940.460865714291	170.278531003891	1828.72273272015	1212.94838167754	134.028429474207	2135.86089441826	781.027996196924	208.596624718451	1484.36826795266	1064.2820300812	139	1675.92893674725
532.220863589505	141.893469370443	878.489900627082	808.853205324753	217.954626296559	1041.22606118765	590.289325213666	149.064502673146	872.184626057333	1218.505909777	157.817908195925	1523.95838028616	1182.30961729962	138.262108231356	2091.92539121229	1064.77070140636	146.582732371342	1535.44422164344	474.762254498498	134.219629842208	713.507844176968	1130.88982015718	165.536940242208	1543.06087340166	639.705950065031	147.86259059813	890.794181480393	948.228738158751	180.06730812455	1188.6576214273	1159.84002033829	181.733485997604	1888.28760958482	1268.4605682363	146.082403674188	1559.90383200911	941.297497023685	170.358278553597	1830.50402185308	1214.32608229073	134.024826828113	2138.22626241891	781.597005676877	208.543365716357	1485.60579087398	1065.33804675159	139	1677.30317172276
532.383954748165	141.892489880959	878.791855189593	809.372580909241	217.974893555147	1041.87586859556	590.306577289912	149.101880377306	872.46486045532	1218.75768359479	157.822009732665	1524.61505118311	1182.83692012867	138.245542319297	2093.74191685306	1065.33032940965	146.555740751086	1536.97603290541	474.981119222634	134.184813108242	714.055506005374	1131.39493478976	165.545631642671	1544.60091243941	639.92962574516	147.919097271995	891.215252059422	948.668208750441	180.14330660853	1190.02918608134	1160.11452287786	181.783706394258	1889.58329282125	1268.91267783862	146.101082211157	1561.30708551589	942.123190751462	170.441835506199	1832.43636301082	1215.66021680358	134.033079726457	2140.77731426143	782.153209306427	208.484321761434	1486.8954323444	1066.40961677209	139	1678.92411783577
532.527300977057	141.887167986235	878.936725507126	809.885929301893	217.988250197392	1042.45296817518	590.330403998317	149.143560600305	872.575518453217	1219.01179635271	157.80626525823	1525.08440979437	1183.25948608747	138.226057750093	2094.99534494792	1065.70945555821	146.506756605039	1537.97018880015	475.162957034934	134.143560600305	714.444518022257	1131.60270928878	165.538695180166	1545.24946495136	640.155854577288	147.958493500288	891.58550454996	948.93407824723	180.197252312201	1190.98990501506	1160.3707531095	181.806936900703	1890.73814630919	1269.20656972477	146.113897378801	1562.31732610766	942.89634066348	170.522635469237	1834.39767978019	1216.89976475831	134.055127699592	2143.38438346354	782.679525838252	208.416973763753	1488.1825436224	1067.4667312548	139	1680.73269392795
532.649348015681	141.880125146052	878.943471171134	810.398405857839	217.995349747749	1042.97105467616	590.375235961118	149.183485885345	872.543409363533	1219.27565469614	157.771689392763	1525.39437590774	1183.59808182411	138.207766501256	2095.71735810725	1065.92413060299	146.444791005435	1538.45920229323	475.306611110839	134.101880377306	714.670548039985	1131.52836427686	165.516657994089	1545.06750998701	640.375126386261	147.982272722244	891.894096897161	949.038803281692	180.226379621326	1191.49513964764	1160.61426116186	181.804938035333	1891.73256609197	1269.36858448162	146.118459717673	1562.90093996177	943.585046557043	170.596347742962	1836.27666494048	1218.00702966248	134.089586400323	2145.92202744383	783.168323295132	208.344331326625	1489.43071036677	1068.48425206593	139	1682.65678573073
532.756319522569	141.875562807179	878.847983383399	810.921996016215	218	1043.450836869	590.461396163139	149.214979589957	872.409955601408	1219.56968043724	157.724006207594	1525.59507129313	1183.87599673578	138.196127329702	2095.99341270259	1066.0002937394	146.382145688931	1538.52061498226	475.415842981819	134.065829896043	714.747016721835	1131.20329997504	165.480433568343	1544.17892181682	640.579426497443	147.994022524852	892.129913632713	949.008236021385	180.231029873577	1191.55681371171	1160.84693484355	181.783439195371	1892.56604853455	1269.43373878951	146.113897378801	1563.07362273221	944.173699575364	170.658984847096	1837.99096669159	1218.96721171715	134.134876927986	2148.28700557738	783.624249170876	208.271564483852	1490.62766208119	1069.44697410143	139	1684.62011183206
532.860903510806	141.874352818591	878.702918737298	811.475602974387	218.004650252251	1043.92320151868	590.612602591646	149.232357096474	872.232329847832	1219.92531931785	157.670063007232	1525.75897560092	1184.11980383263	138.195341581406	2095.93718271459	1065.97059296943	146.33154573229	1538.25293987743	475.499265765854	134.040179276815	714.700125086594	1130.67790564254	165.431452481208	1542.73999284553	640.762459646185	147.997345554206	892.283118793451	948.874164721655	180.214979589957	1191.22742132647	1161.07166612579	181.752435681801	1893.2479928007	1269.43867131343	146.101082211157	1562.88538496648	944.662956910317	170.709200436576	1839.50892358531	1219.78612893144	134.186018359229	2150.42670777787	784.063306393116	208.20787713231	1491.79020801429	1070.35302277012	139	1686.5635272277
532.98148035553	141.87381134399	878.567474563878	812.081979058788	218.013077025505	1044.42217505618	590.851747351361	149.232357096474	872.078483984836	1220.37884666567	157.616353364885	1525.97018839371	1184.36093375982	138.207783656711	2095.65537096881	1065.87641801999	146.302020309284	1537.7493618916	475.571073137044	134.028149857467	714.560108779485	1130.02249662786	165.371884276711	1540.90163443305	640.92188438897	147.995349747749	892.349941304893	948.667356902723	180.183485885345	1190.5816161736	1161.28735290961	181.72253626103	1893.7945434135	1269.41148013829	146.082403674188	1562.4001165393	945.063033223224	170.744986360204	1840.83784599118	1220.48243529572	134.237024504179	2152.32651349824	784.503416534665	208.161300295914	1492.94820381385	1071.20518635294	139	1688.44007089886
533.133393912252	141.872222622371	878.499764160758	812.757852179159	218.028429474207	1044.98142462077	591.191255571078	149.214979589957	872.017253783224	1220.95731512764	157.570277019353	1526.30956623713	1184.63095992326	138.233147000628	2095.24520161265	1065.76150554926	146.298697279931	1537.08748495628	475.646110061989	134.029756697104	714.361233831636	1129.32321056838	165.305893213177	1538.80289825721	641.05849562469	147.988250197392	892.338931599789	948.411416639978	180.143560600305	1189.70065100823	1161.49356526619	181.702616735854	1894.23589977133	1269.36878515777	146.061156926116	1561.69073456007	945.387574088576	170.766759523773	1842.01610991768	1221.07717585012	134.280698854946	2153.99891929628	784.957358454327	208.137538229412	1494.13284048591	1072.00392745346	139	1690.21395505098
533.329155192815	141.865936345159	878.544986252114	813.514025851869	218.052473253798	1045.62831161221	591.633285773519	149.183485885345	872.108091151942	1221.67383679483	157.537059376402	1526.84360827373	1184.96264729919	138.267587233519	2094.7774904538	1065.6701647835	146.319795929681	1536.31970215978	475.739467421094	134.043377896984	714.135268216814	1128.67436796607	165.238613584937	1536.55803974339	641.1762746629	147.976220778044	892.270799769761	948.118484784957	180.101880377306	1188.65622278724	1161.68708869909	181.698054396982	1894.60266569252	1269.31180784223	146.04072345119	1560.81885321334	945.648350309809	170.775266551834	1843.08412885154	1221.58717437715	134.310198431789	2155.45683864377	785.429272479237	208.139272537147	1495.35735057003	1072.74520998378	139	1691.84866609617
533.571109565984	141.853093652666	878.727092457764	814.348773526606	218.086263370969	1046.37670767233	592.164489475111	149.143560600305	872.388643808451	1222.5181542054	157.519654345035	1527.6061480568	1185.38068690548	138.305893213177	2094.31473589786	1065.63789774844	146.359693689872	1535.48255138148	475.861808798176	134.065807178367	713.912634116872	1128.16308439883	165.177967549659	1534.27023300028	641.2807160104	147.95927654881	892.177848145014	947.791182579219	180.064502673146	1187.50497727758	1161.86217922846	181.711048316283	1894.92859834507	1269.2294202465	146.022451999059	1559.83258509306	945.848315707541	170.77273699892	1844.07564240442	1222.01581817827	134.320624139986	2156.70463740537	785.907655378461	208.16463362509	1496.61261609369	1073.41333795658	139	1693.30788881541
533.850756830486	141.834415115697	879.0457605642	815.243604715869	218.129104600526	1047.22379599332	592.755369606392	149.101880377306	872.868080330601	1223.45133537353	157.519654345035	1528.59228713502	1185.89703296902	138.342910628129	2093.91963087649	1065.6866309735	146.408717806496	1534.60889258897	476.016429628167	134.094153476796	713.72194719091	1127.85759889299	165.132684680567	1532.04507852834	641.377251775307	147.938843073884	892.098512719146	947.426392489187	180.035529024564	1186.29002333069	1162.01192848164	181.73973461998	1895.24497960268	1269.10581081121	146.007099550357	1558.7685592543	945.981004895614	170.76271363796	1844.9955260506	1222.3506979811	134.310198431789	2157.72129388824	786.368446920337	208.207859976856	1497.86149682945	1073.98134682959	139	1694.54456917788
534.150730908586	141.813195892475	879.476463432879	816.168797213029	218.179966415029	1048.15231402314	593.366408333461	149.064502673146	873.526323313791	1224.41383265365	157.537059376402	1529.75995539097	1186.50346888239	138.373618584445	2093.66387415733	1065.81938315267	146.45734948153	1533.73874873808	476.198566327986	134.124861433113	713.589704645973	1127.79643765134	165.110659425108	1529.99919414661	641.469650314146	147.917596325812	892.065840700018	947.020510446387	180.016400054859	1185.03474981968	1162.12969367065	181.779919725055	1895.56496786704	1268.92601193595	145.992900449643	1557.64373306962	946.034357357291	170.750706936288	1845.82391272006	1222.57138340941	134.280698854946	2158.47136138403	786.780052296964	208.26060042954	1499.04664500706	1074.41823772906	139	1695.51067669252
534.448482575361	141.794486355888	879.982036680819	817.085722755199	218.237807552701	1049.13577828691	593.95408568079	149.035529024564	874.321047627329	1225.33182625	157.570277019353	1531.04153561935	1187.17067301349	138.394706864801	2093.6215260225	1066.01928254732	146.497116298854	1532.92217668814	476.395663498667	134.15462082999	713.534849169708	1127.98081147743	165.119086198363	1528.25994609603	641.560981322025	147.898917788843	892.100620205154	946.576902511164	180.005977475148	1183.75084048439	1162.20966940496	181.826011060119	1895.87743919195	1268.68323646255	145.977548000941	1556.45964780183	945.992284361437	170.741214797998	1846.52046544325	1222.65327341493	134.238351727076	2158.91330904727	787.109888599362	208.313788881226	1500.10042824898	1074.69142823023	139.001327222897	1696.16115548343
534.720402116467	141.783693187146	880.519527572562	817.952499658944	218.301771879731	1050.14192731943	594.477951956406	149.017727277756	875.193968070936	1226.13270346234	157.616353364885	1532.354309191	1187.85211365993	138.405153203221	2093.87492212195	1066.25461339899	146.523700834272	1532.2265280777	476.589925397299	134.179616643789	713.572949533862	1128.37838416615	165.159786931877	1526.96454770937	641.650822365439	147.884775398303	892.205897813928	946.110716471768	180.001327222897	1182.44209138535	1162.25010551126	181.870895399474	1896.14559617248	1268.38385350841	145.95927654881	1555.20872186039	945.840839433939	170.73973461998	1847.04723757084	1222.57553133385	134.191995834377	2159.02844080543	787.331545755358	208.359867413159	1500.96666913192	1074.77550699867	139.004650252251	1696.47325214055
534.947574341721	141.785020410043	881.054666275312	818.733331352725	218.371181634619	1051.14404752795	594.907192824508	149.010627727398	876.087817967514	1226.75636561111	157.670063007232	1533.62569847739	1188.49090970977	138.40566883166	2094.48461800763	1066.48346822544	146.535878351942	1531.71948811213	476.762447228332	134.196301052989	713.709052481001	1128.93035042389	165.231768026354	1526.23819233643	641.736005915692	147.875562807179	892.366406305803	945.650017261627	180	1181.11587748145	1162.25173827553	181.90908637678	1896.3214640428	1268.04844657493	145.938843073884	1553.8880473511	945.570181302924	170.747098797546	1847.37739851033	1222.32841155629	134.151276982845	2158.82964579227	787.428919814952	208.393397838391	1501.60738551535	1074.65429902973	139.011749802608	1696.44778606495
535.120128874547	141.799136608139	881.570957081711	819.405474616045	218.445332480036	1052.12490076664	595.227872730248	149.013077025505	876.954691255048	1227.1716802283	157.725333430491	1534.80958704528	1189.03313577069	138.399525499313	2095.48459368946	1066.66638096211	146.537202100069	1531.46636556526	476.898820364901	134.202164422313	713.939117586812	1129.56597689036	165.32819998526	1526.17742093357	641.81213106129	147.868375343444	892.55557606479	945.234476179321	180	1179.78970212181	1162.2228616484	181.935776943594	1896.3552654788	1267.70965017018	145.917596325812	1552.50759387559	945.182674457654	170.764058016311	1847.5113862383	1221.92002765899	134.126442647784	2158.37514853253	787.40036010684	208.412526808097	1502.01536187387	1074.3295378322	139.023779221956	1696.11908472735
535.235100511843	141.824945695083	882.064451977966	819.955048306653	218.523173815352	1053.07091370678	595.435997724631	149.025106444853	877.757818712127	1227.36863468035	157.776339645014	1535.87963867735	1189.44095590592	138.391642634395	2096.8675278637	1066.77674415431	146.533448296742	1531.51375243549	476.992815373981	134.196301052989	714.249524877418	1130.21903576281	165.440770141163	1526.8279592928	641.874098826817	147.858738512028	892.744169894736	944.909892554469	180	1178.49617304101	1162.17518069872	181.947791303837	1896.21763691207	1267.40749414802	145.898917788843	1551.10042723603	944.691276697057	170.787298892152	1847.47177622956	1221.37856104695	134.122953402092	2157.75746734661	787.257768488682	208.41706538826	1502.20691299998	1073.82129923251	139.04072345119	1695.54556323838
535.298147572159	141.858194337653	882.541860881254	820.383151378494	218.603009278436	1053.97270403723	595.542162861897	149.045373703441	878.472758458666	1227.36602233036	157.816687837942	1536.83298973422	1189.69750634793	138.3874937761	2098.56880455794	1066.80416019797	146.531054376404	1531.87368115751	477.047825908837	134.180943866686	714.616549154532	1130.83488878451	165.559229858837	1528.15852308448	641.920418932671	147.841343850058	892.910184797965	944.71827240133	180	1177.27883053926	1162.12848410601	181.946199523305	1895.90941397312	1267.18450469592	145.8861026212	1549.71942463247	944.118793785563	170.812654417874	1847.29622612171	1220.74614439078	134.143386877018	2157.08879901379	787.019789716003	208.407037337591	1502.21327043588	1073.16283446667	139.061156926116	1694.79781813947
535.319479929744	141.893817103856	883.006162095071	820.697649491405	218.682356984215	1054.81567011417	595.56164758092	149.072906728724	879.082504077281	1227.19709583618	157.842465925267	1537.67162350177	1189.81454219378	138.390816805453	2100.47959167463	1066.76102652984	146.534377405758	1532.52159662425	477.076426199041	134.159271082241	715.010966754086	1131.37804343389	165.67180001474	1530.05571840032	641.950756299956	147.813183474622	893.044261255936	944.684351152752	180	1176.17874224789	1162.10069277432	181.934192821633	1895.45916680151	1267.06972244709	145.881540282327	1548.42592783306	943.493733210847	170.836149423432	1847.01560127414	1220.07376333336	134.186394322913	2156.4632790534	786.708357467344	208.380456276941	1502.05885409956	1072.39822108675	139.082403674188	1693.93709988959
535.30956083144	141.925766048379	883.448868664618	820.910695612944	218.756736162813	1055.57801856487	595.512155668589	149.106182896144	879.57098106571	1226.89979077211	157.851532096757	1538.39307958517	1189.8212523073	138.4047196599	2102.45503018453	1066.67157744556	146.546525322247	1533.39479512425	477.094031504887	134.136611235721	715.399513684883	1131.82514621029	165.769559196543	1532.32682150473	641.967611574778	147.773665274419	893.148626199388	944.806671218522	180	1175.2180149745	1162.10360095027	181.916269102915	1894.91244648542	1267.07411164442	145.8861026212	1547.26972148655	942.845958799158	170.853906925811	1846.65740574421	1219.41299786482	134.245259643644	2155.95330356454	786.343936356394	208.33343930763	1501.76398232571	1071.57426548776	139.101082211157	1693.01628806082
535.277619127827	141.949976044309	883.843384567423	821.036024447514	218.822032450341	1056.22973805102	595.410381184736	149.141805662347	879.922248516179	1226.51256523679	157.843793148164	1538.97873623851	1189.75800735924	138.42795497352	2104.34259344122	1066.56787916616	146.565631574276	1534.40516133123	477.115648704047	134.117932698753	715.751924317389	1132.16135553004	165.844863320374	1534.72899339319	641.972943721433	147.726927714332	893.23220437228	945.056084492201	180	1174.39381956231	1162.14046862864	181.898917788843	1894.31976520527	1267.18602945485	145.898917788843	1546.27791669972	942.204121600669	170.865123072014	1846.24645340876	1218.80707872375	134.312992763535	2155.60172268889	785.944994272318	208.263181462478	1501.34556764739	1070.73449121132	139.113897378801	1692.07946295376
535.231812922099	141.963143752539	884.15476020162	821.087293225319	218.873292794581	1056.74699027347	595.271405591354	149.175054304917	880.124933350017	1226.06720721777	157.821338090192	1539.4096014558	1189.66373433453	138.459469308355	2106.01933383814	1066.48105050426	146.58835160574	1535.46951708024	477.149438821218	134.106530629557	716.048063534415	1132.37764700497	165.893990827142	1537.02114780738	641.964532888692	147.679117130638	893.307959287987	945.380179474829	180	1173.68409028103	1162.19947885537	181.8861026212	1893.73508847785	1267.37229396866	145.917596325812	1545.46218811529	941.592826142157	170.870488314637	1845.82096074582	1218.29000025905	134.380590666705	2155.44134844054	785.529336779423	208.171044781501	1500.83469865557	1069.9188959312	139.11978694057	1691.17899084104
535.177433941145	141.964470975436	884.346974806651	821.081323991414	218.907067852647	1057.11602395299	595.109486266735	149.200863391861	880.174879915685	1225.59442869426	157.789416670519	1539.66965520766	1189.56822559255	138.496066826441	2107.42135063774	1066.43725776408	146.609964205242	1536.53376186296	477.198688299896	134.1045348231	716.28282503325	1132.47268171023	165.917770049098	1539.01473546724	641.938203524025	147.638131218163	893.385590690195	945.720474809386	180	1173.05742795325	1162.26661096084	181.881540282327	1893.20616776058	1267.593857787	145.938843073884	1544.81969647643	941.03905230177	170.873025595694	1845.45261335502	1217.8920263236	134.441297160084	2155.52167759334	785.12071782318	208.063274704483	1500.29728269699	1069.16893995082	139.118547631051	1690.39411667413
535.121737989224	141.954626296559	884.401539935937	821.043308373047	218.922420301349	1057.35418103265	594.940369882246	149.216306812854	880.088160039434	1225.13049706441	157.753762904698	1539.77343801611	1189.49116206458	138.534234045038	2108.55197528993	1066.45715424132	146.624893676483	1537.58525179427	477.261248014007	134.110833148395	716.466577328224	1132.45685147732	165.921115796128	1540.60572896263	641.887437488987	147.610367627742	893.475397931384	946.025123530715	180	1172.49148821091	1162.32684468644	181.8861026212	1892.78451080852	1267.81307434095	145.95927654881	1544.35006791375	940.571731213705	170.876890030076	1845.24973358981	1217.6393345204	134.490164846818	2155.92155724177	784.749504784962	207.954452573273	1499.83989272376	1068.52691229125	139.112832013765	1689.83672938368
535.074368341385	141.937515850987	884.328510435414	821.00682044438	218.922443019025	1057.51239253956	594.782164386237	149.219629842208	879.902674488829	1224.7208109265	157.72253626103	1539.77503538988	1189.44721185251	138.572713969179	2109.48229521123	1066.5615801852	146.631338421411	1538.65815334422	477.334165042554	134.124581816373	716.625054192658	1132.35966240341	165.911618850664	1541.78951423338	641.806941707877	147.600753514003	893.585354289619	946.260338600504	180	1171.97828384985	1162.37267315349	181.898917788843	1892.51676332308	1268.00339090881	145.976220778044	1544.05483120272	940.224505244904	170.884775398303	1845.33860428982	1217.56147390857	134.525610765178	2156.73695240394	784.454485009015	207.861366361397	1499.59718039579	1068.03830009322	139.106182896145	1689.63259130413
535.045627695215	141.917596325812	884.171843332928	821.013336816715	218.911618850664	1057.67546751152	594.653551517499	149.21261319447	879.677979730285	1224.41585826299	157.702616735854	1539.77061744652	1189.44455291645	138.608364606514	2110.32897724893	1066.76566286192	146.630125304338	1539.81549707802	477.416452307054	134.142326853007	716.79380937239	1132.22197539581	165.897590565946	1542.64458867629	641.697075375706	147.607136036161	893.725347748229	946.416595189417	180	1171.52579880706	1162.41030164247	181.917596325812	1892.44493875521	1268.15615608611	145.988250197392	1543.93870106579	940.026553059958	170.898917788843	1845.85074792181	1217.68110231305	134.548690044816	2158.07183754639	784.274715341735	207.801246741615	1499.71640755752	1067.74252833794	139.101880377306	1689.91001127258
535.048432326783	141.898917788843	883.999475064	821.107244840841	218.898917788843	1057.94379632196	594.573340311927	149.20016074977	879.485895618054	1224.26691245574	157.698054396982	1539.88290515326	1189.49125723158	138.639065321921	2111.2125399576	1067.08034121146	146.624609322142	1541.1173237707	477.510714377077	134.16051039176	717.007660920935	1132.09084942951	165.8861026212	1543.28702097448	641.56177540189	147.624518280278	893.901856168589	946.501985032194	180	1171.14748426897	1162.4518206775	181.938843073884	1892.58959244718	1268.27122778178	145.994022524852	1543.99129383834	939.998830314128	170.917596325812	1846.87663703352	1218.00895170245	134.560979284199	2159.9853522656	784.243473125589	207.786951395954	1500.31538865055	1067.66521728321	139.101880377306	1690.75161429497
535.089681775807	141.886102621199	883.892220133942	821.321709829731	218.892080096347	1058.41490022045	594.551706275722	149.187179365787	879.398188083395	1224.30470237032	157.711048316283	1540.2370718389	1189.59160959813	138.66272181338	2112.23263272269	1067.50436113062	146.620497416007	1542.59654079682	477.621540284563	134.176381527814	717.295005986212	1132.00778914408	165.881540282327	1543.84113483606	641.411106919659	147.644695063656	894.11669956856	946.540624383657	180	1170.85366345681	1162.51507675059	181.95927654881	1892.94791227488	1268.35965855434	145.994022524852	1544.18806904681	940.14950782776	170.938843073884	1848.44414571288	1218.54138479517	134.563547495302	2162.46848281777	784.380358415828	207.823029402067	1501.45495667413	1067.81254904981	139.106182896144	1692.17132741899
535.172863957382	141.881540282327	883.922339109659	821.671557019312	218.897940337186	1059.15628850099	594.588540071546	149.180416847766	879.469627462526	1224.53011354606	157.73973461998	1540.92698162792	1189.74427958796	138.676898265992	2113.44303206634	1068.02226641747	146.623094882008	1544.24357246275	477.754941841706	134.188136137596	717.670769756409	1132.0016567359	165.8861026212	1544.40587289618	641.258502885488	147.659194732384	894.367357196146	946.56319770331	180.001327222897	1170.65192724844	1162.61459772599	181.977548000941	1893.48976634183	1268.43621088115	145.989577420289	1544.49171607628	940.465048079074	170.95927654881	1850.49013374242	1219.25138810133	134.557635574996	2165.41622660715	784.68221227156	207.906379528294	1503.10579878295	1068.16206811064	139.112832013765	1694.08874471192
535.291597729573	141.8861026212	884.133812897129	822.143761296396	218.921631645764	1060.18249846064	594.671117469021	149.183739877119	879.722522743619	1224.90543250341	157.778592502158	1541.98391153303	1189.93961461269	138.680221225773	2114.83269998606	1068.59992668268	146.635476772369	1545.9922363465	477.916115613943	134.195235687953	718.131465251008	1132.08161425343	165.898917788843	1545.03144768222	641.11998842592	147.662943798111	894.649942175469	946.60128928844	180.005977475148	1170.54903542698	1162.75635811743	181.992900449643	1894.16527446485	1268.51839556115	145.980871030295	1544.86317778663	940.91234379633	170.976220778044	1852.85574480404	1220.09523185604	134.543970130687	2168.62338065956	785.117640951899	208.023250165209	1505.13318589493	1068.66610670103	139.118547631051	1696.32069634109
535.434927055779	141.898917788843	884.529929147793	822.701173997232	218.964747684886	1061.4457570417	594.777850239704	149.200256391292	880.138750153247	1225.36458829082	157.821360807868	1543.3582007941	1190.16007047616	138.671014266444	2116.3233007001	1069.19095485554	146.655762148974	1547.72861307166	478.107330833533	134.198833526873	718.654409301112	1132.23827461767	165.916269102915	1545.71126288901	641.010985109317	147.655775923566	894.964227899784	946.68021465788	180.017727277756	1170.56239900541	1162.93171522458	182.007099550358	1894.92103424711	1268.61905026966	145.971026351418	1545.28262737779	941.442024302272	170.988250197392	1855.30227090398	1221.01760056471	134.524483882794	2171.81010471155	785.630377494645	208.153205693715	1507.30565709516	1069.25695720226	139.11978694057	1698.60135501363
535.583954777784	141.917596325812	885.065065647453	823.283930274956	219.024126955368	1062.83337769722	594.879158863679	149.228590223977	880.656914193401	1225.81649329206	157.860472819763	1544.91315169174	1190.37776911604	138.64804351046	2117.77807811175	1069.73973896336	146.677706731964	1549.30411823076	478.326349267837	134.199906620053	719.200932298693	1132.44465673223	165.934192821633	1546.38322296191	640.943502836698	147.642411068951	895.315641243126	946.80991022841	180.040179276815	1170.72268106537	1163.11595156873	182.022451999059	1895.70835900277	1268.74320937047	145.96262229584	1545.75675935972	941.993061804701	170.995349747749	1857.55074793454	1221.9599101125	134.5013911549	2174.67017249364	786.142065023971	208.270426239812	1509.32703160718	1069.85530263159	139.113897378801	1700.62225418621
535.718469516677	141.938843073884	885.659319274126	823.824428861112	219.094153476796	1064.19324101039	594.946247118824	149.265086448268	881.18960380912	1226.16861796071	157.889957407075	1546.4567360821	1190.56128579666	138.609829815478	2119.02326739574	1070.1914990432	146.693560712563	1550.55964505955	478.565893828046	134.198833526873	719.722007371049	1132.66522469401	165.947526746202	1546.94634579456	640.923904161671	147.630919995718	895.7101325721	946.983479873116	180.077579698651	1171.07141211659	1163.2669598244	182.04072345119	1896.48247520331	1268.881412107	145.958319777002	1546.31589477058	942.506475877672	170.998672777103	1859.3363693604	1222.87405216642	134.480171931678	2176.93068331885	786.568148461053	208.351086316898	1510.88985886161	1070.38525948309	139.101082211157	1702.08913913891
535.819145605559	141.95927654881	886.214649593722	824.256688115922	219.166541656111	1065.35901769081	594.955394652187	149.30456599028	881.637849024962	1226.34370742467	157.906803295012	1547.77497313397	1190.67931924553	138.556697384953	2119.88998971234	1070.50404838248	146.695250775869	1551.3636389175	478.814388725609	134.195235687953	720.168478811761	1132.86406862927	165.952441556088	1547.29639184074	640.949623035514	147.629072357156	896.148291753312	947.179559468133	180.13163707441	1171.65772974766	1163.33674527872	182.061156926116	1897.20929423853	1269.0142929803	145.96007471496	1547.00739103954	942.93594564154	171	1860.47080730247	1223.7293118221	134.465876586016	2178.42130559274	786.834990706109	208.377235409111	1511.74332447684	1070.78965032695	139.082403674188	1702.78709147859
535.871116454047	141.976220778044	886.636835362511	824.530094253139	219.231923819191	1066.18499082962	594.891987238435	149.339433938232	881.914884509264	1226.28983819159	157.910413599677	1548.67704530344	1190.70891287353	138.489379098522	2120.25199339978	1070.65582343886	146.676979323738	1551.64423979719	479.05915350898	134.188136137596	720.501914204677	1133.02092471188	165.947526746202	1547.36391847146	641.009434894265	147.642781470414	896.618980542137	947.371784860222	180.20201132925	1172.5268387227	1163.28126340775	182.082403674188	1897.86239324784	1269.1175617759	145.968506295388	1547.88015764252	943.261690746524	171	1860.88459748683	1224.52560271689	134.461726972673	2179.11662689747	786.89800083301	208.34265473647	1511.74693226516	1071.0434530857	139.061156926116	1702.62672028441
535.870723506479	141.988250197392	886.860329056429	824.619992534387	219.281764219982	1066.57646199577	594.756841383249	149.363102529134	881.966135988889	1226.00129218454	157.904519300307	1549.03884440342	1190.64051814724	138.412340666957	2120.06631050203	1070.65438939055	146.640830559702	1551.41913111422	479.286937966758	134.176381527814	720.703624799729	1133.13758926915	165.934192821633	1547.15204754387	641.089017070997	147.67348942673	897.097852118767	947.542523962409	180.286149311173	1173.7072311848	1163.08118959809	182.101082211157	1898.42038893428	1269.17748871905	145.982622493484	1548.96523497976	943.493237546734	171	1860.64662872059	1225.28563736109	134.471760585564	2179.14877703482	786.750292451407	208.253227880861	1510.90418977196	1071.15493129078	139.04072345119	1701.66746493213
535.829609859868	141.995349747749	886.86270657726	824.534826707068	219.310110518411	1066.50822425532	594.565930744242	149.372682580802	881.779970287287	1225.5196973365	157.894267536593	1548.82752146905	1190.48591024584	138.332500466271	2119.39297708582	1070.54110870336	146.592853759669	1550.80293126843	479.490621107815	134.159183168863	720.782243892168	1133.24709970335	165.916269102915	1546.75296539816	641.175508892611	147.719213231676	897.550433038475	947.692507498442	180.379613215047	1175.1994960662	1162.74839533651	182.113897378801	1898.86704877508	1269.2001580491	146	1550.26509520473	943.668129114032	171	1859.95077986234	1226.05731420201	134.494850234598	2178.78582094568	786.425989010775	208.125721650461	1509.36259685484	1071.1667979725	139.023779221956	1700.10525451697
535.771848285262	141.998672777103	886.6629146647	824.313866523606	219.316061801114	1066.02261959572	594.351528774479	149.367325066324	881.383854604062	1224.92945709509	157.884775398303	1548.09667963168	1190.26867579861	138.257284255818	2118.37035394474	1070.37731859947	146.54265051847	1549.9808064517	479.667429379229	134.137676600757	720.767439010579	1133.39635411438	165.898917788843	1546.32242043267	641.263259682508	147.774463440568	897.939688598338	947.84237766292	180.476826184648	1176.96489905088	1162.33114743621	182.118459717673	1899.18815256583	1269.21621855051	146.017377506516	1551.7382114544	943.838049923998	171	1859.06198011115	1226.89088510085	134.529299438446	2178.36324877144	785.988096801082	207.980678300461	1507.37297194317	1071.13683488009	139.011749802608	1698.22331534751
535.731675390525	142	886.316208917805	824.017793105727	219.302033516396	1065.21865148078	594.153746364497	149.350377708604	880.839382733157	1224.34054864173	157.881540282327	1546.97381906319	1190.01731796628	138.19373474177	2117.19422839295	1070.2325010452	146.501312134981	1549.17312503754	479.819378004547	134.112832013765	720.707243174384	1133.63202057831	165.8861026212	1546.04536777708	641.351308905073	147.832660177739	898.235452606727	948.02348061947	180.57204502648	1178.92392111134	1161.89762829037	182.1138973788	1899.37802975016	1269.26677614529	146.031493704612	1553.30511195142	944.056185138263	171	1858.25662981315	1227.82634795988	134.570173629208	2178.20309071187	785.515981262968	207.839094941256	1505.23368951238	1071.12485620652	139.004650252251	1696.32827427747
535.743774712896	142	885.903001016534	823.715814236783	219.275097343483	1064.23165863823	594.013604889014	149.329304905015	880.229075612747	1223.86380045926	157.8861026212	1545.63657986641	1189.76166643973	138.149016618753	2116.06413113142	1070.16947730284	146.478429361948	1548.58520826721	479.950644627869	134.087053926439	720.653246041286	1133.98563568813	165.881540282327	1546.08034784553	641.447346196995	147.886369820086	898.418980432708	948.269184814386	180.660312069993	1180.96259320318	1161.52276411096	182.101082211157	1899.4364331155	1269.3971045117	146.03992528504	1554.85348134831	944.362213516199	171	1857.76828551183	1228.8788636442	134.610904946485	2178.54842125814	785.088349920014	207.717556896636	1503.23519235618	1071.17890135414	139.001327222897	1694.69485203022
535.835420802992	142	885.509550958557	823.471424328243	219.24553445321	1063.2049319032	593.963959266515	149.312154904723	879.64250283801	1223.58966005704	157.898917788843	1544.27439526631	1189.51952891476	138.124257907313	2115.14075838045	1070.22754356621	146.477974122037	1548.36422255288	480.06600361933	134.062484149013	720.649204359224	1134.45924657965	165.8861026212	1546.51709462843	641.559464579832	147.930847074603	898.484245760513	948.60294983525	180.738153405309	1182.95218830393	1161.26774794477	182.082403674188	1899.37246552781	1269.63673633971	146.041680222998	1556.25864397	944.777785518429	171	1857.74269510496	1230.03639119771	134.645327151409	2179.51400072781	784.770695478636	207.62778129626	1501.60852490535	1071.32659279755	139	1693.51608703299
536.02136009351	142	885.222319853116	823.332911831571	219.222708390351	1062.27427646802	594.025958594384	149.305626014291	879.167921412843	1223.57447997137	157.917596325812	1543.06964500952	1189.30460240316	138.119607655062	2114.52818779346	1070.42468074607	146.499654147392	1548.5844228891	480.167433563899	134.042050674087	720.724116220961	1135.03509170174	165.898917788843	1547.36379639632	641.695099335355	147.963143752539	898.446468116713	949.033132830207	180.803872670298	1184.78310438365	1161.16909537834	182.062484149013	1899.22197952796	1269.99322470062	146.038704927057	1557.42294409221	945.305040695148	171	1858.22163280204	1231.26307796326	134.667261434577	2181.07352805935	784.60981843639	207.577566461828	1500.49739680613	1071.57979823695	139	1692.88501065425
536.300607514083	142	885.114768653535	823.329700672015	219.21594587233	1061.5511032007	594.205066801018	149.313966552855	878.884530090476	1223.83653935276	157.938843073884	1542.17545902488	1189.13011807093	138.132616563894	2114.2599800341	1070.76396497691	146.539579432432	1549.24237532461	480.257457979105	134.028429474207	720.886128079398	1135.68935451846	165.917596325812	1548.54643109933	641.862691100932	147.983599945141	898.336126234021	949.554846242796	180.857411289132	1186.38128669801	1161.24011706811	182.045373703441	1899.04052646394	1270.45551653586	146.033623900832	1558.28803726002	945.933348437504	171	1859.16067929083	1232.51458037571	134.674360984934	2183.09535448529	784.631952008406	207.569948154545	1499.95865863095	1071.94143618407	139	1692.80788863849
536.659773695053	142	885.247987622805	823.475792386759	219.230440803457	1061.12234827866	594.494721815841	149.337574958814	878.86110317194	1224.3638938445	157.95927654881	1541.71252949576	1189.01158743035	138.159532940102	2114.31546939771	1071.23950725952	146.591073334688	1550.27597867273	480.336147404685	134.024826828113	721.126558050901	1136.40485347448	165.938843073884	1549.93679838845	642.067229776748	147.994022524852	898.194291729907	950.148794987728	180.899869048056	1187.71617027659	1161.46949617505	182.035529024564	1898.89306160354	1270.99227377161	146.030878772314	1558.84254777352	946.641865838379	171	1860.45432115226	1233.74441158515	134.667779150469	2185.38618741518	784.841974274096	207.605212887512	1499.97582204233	1072.40716135296	139	1693.22914245974
537.07748703311	142	885.661996662763	823.772767574659	219.267390792556	1061.04743280779	594.878919915866	149.370660443958	879.147451106016	1225.12138270042	157.976220778044	1541.75816181472	1188.97709671954	138.197431834923	2114.63959297028	1071.85162220522	146.647611008172	1551.58760613607	480.405129444512	134.034406949354	721.424092054619	1137.18866204092	165.95927654881	1551.38966482606	642.310782181685	147.998672777103	898.06839115127	950.786012429943	180.932865598736	1188.79623076344	1161.82939342659	182.035529024564	1898.84564792681	1271.56328340937	146.034201801667	1559.11964610669	947.406903251074	171	1861.96979614407	1234.91801210276	134.651628397675	2187.74465151727	785.230052917538	207.679637717875	1500.4812089701	1072.97519507058	139.001327222897	1694.06007288914
537.526507969148	142	886.374599521479	824.209603126941	219.32407092367	1061.35992475941	595.329788490466	149.404347170985	879.771515122675	1226.05263844757	157.988250197392	1542.34784956059	1189.04768236709	138.242369891573	2115.18637302707	1072.59630350507	146.704117682038	1553.08373736732	480.463749159143	134.058450728946	721.757297466847	1138.05670691718	165.976220778044	1552.79291556867	642.592050382365	148	898.002307878019	951.434641186832	180.957949325913	1189.6505735348	1162.28285314638	182.045373703441	1898.94946520626	1272.12847926016	146.045373703441	1559.17780723887	948.197954302977	171	1863.5724606593	1236.00940682895	134.632657778222	2189.9991099021	785.7685785591	207.784229099525	1501.37715660897	1073.63701595374	139.004650252251	1695.20560541881
537.981039946407	142	887.372212300367	824.766604723197	219.395925356528	1062.06376457882	595.814290442835	149.428920007324	880.728260951709	1227.08808161843	157.995349747749	1543.46225287197	1189.23847151705	138.292559288608	2115.91470922494	1073.46415330345	146.757630108427	1554.675475333	480.510794624765	134.09668595068	722.103801852653	1139.03008248344	165.988250197392	1554.07929647077	642.905157121852	147.998672777103	898.026876617951	952.064366270035	180.976220778044	1190.31191285305	1162.79004433018	182.062484149013	1899.22348900616	1272.65507267803	146.062484149013	1559.07975984807	948.982011317156	171	1865.14161340572	1237.00481902478	134.617680587782	2192.02425609076	786.417553497606	207.905770203058	1502.54589498368	1074.38008231785	139.011749802608	1696.56960154782
538.416900350897	142	888.604459096614	825.4159693468	219.476914098026	1063.12899175163	596.295014213726	149.434609432165	881.973991858299	1228.15199530444	157.998672777103	1545.02252295206	1189.54610483887	138.34528944147	2116.80523338161	1074.43139298715	146.807218417328	1556.29630071541	480.545885772388	134.146906347334	722.448600007036	1140.11763097946	165.995349747749	1555.24770614414	643.239214693018	147.995349747749	898.157809293083	952.652965737848	180.988250197392	1190.80676708111	1163.309515535	182.082403674188	1899.65702083483	1273.12269710974	146.082403674188	1558.88506115866	949.720738755161	171	1866.5721831311	1237.89685599138	134.611005277717	2193.74336575509	787.124849282198	208.024375147708	1503.85471055101	1075.18138181824	139.023779221956	1698.05595328742
538.814511753716	142	889.980703718812	826.123349032611	219.560557081733	1064.48418240439	596.733158592974	149.418497427612	883.421131925998	1229.16560987136	158	1546.88209171309	1189.94556457886	138.398224468861	2117.84150168545	1075.45564046228	146.852216862506	1557.89118787956	480.568293527018	134.202962588463	722.778520496567	1141.30260882748	165.998672777103	1556.34129075346	643.583573489483	147.988250197392	898.396528396317	953.192816697401	180.995349747749	1191.16051923638	1163.80776191959	182.101082211157	1900.21764194554	1273.53082723736	146.101082211157	1558.64977295906	950.371860270618	171	1867.77734965322	1238.67962121873	134.615209513782	2195.11852851079	787.827119735845	208.119065943247	1505.16085233073	1076.00344111234	139.04072345119	1699.56469300395
539.158246861973	142	891.378934403526	826.848512307246	219.641633533025	1066.01955819937	597.094555562089	149.380567949029	884.946601642226	1230.05836035049	158	1548.842074409	1190.39202566915	138.448126590585	2118.9912255794	1076.4739882288	146.892489880959	1559.4063264393	480.58099055666	134.257457979105	723.082635984536	1142.53660629756	166	1557.42195422557	643.924620159448	147.976220778044	898.72843206218	953.68644463902	180.998672777103	1191.40199632057	1164.25509322329	182.113897378801	1900.85775920033	1273.89250654379	146.113897378801	1558.42669925382	950.893919120827	171	1868.6904592118	1239.34994262803	134.629616531531	2196.14122110369	788.456951362846	208.169072881426	1506.31881981796	1076.79995671514	139.062484149013	1700.98942162972
539.438899168625	142	892.66192953277	827.555617071616	219.716906657237	1067.5971498717	597.356848503232	149.328609769871	886.407467904611	1230.78172304948	158	1550.67535052613	1190.83290606531	138.492989403187	2120.19561543498	1077.4189508594	146.927093271276	1560.78930053931	480.588445081339	134.303272825915	723.348444288958	1143.75021467108	166	1558.54365153503	644.248284633188	147.95927654881	899.124199886486	954.145694620216	181	1191.57440734315	1164.62635949148	182.118459717673	1901.52613335118	1274.22580399988	146.118459717673	1558.26783846068	951.258382916828	171	1869.28204343774	1239.91036273022	134.650775569809	2196.83896341087	788.956728271406	208.161815686239	1507.2083500323	1077.52550624446	139.087053926439	1702.23801517449
539.651543925437	142	893.702720261749	828.208756988455	219.783439195371	1069.07104698319	597.509894055928	149.273095003344	887.665075358703	1231.30885892977	158	1552.16992441517	1191.21804338578	138.529208604098	2121.38544285088	1078.23082318068	146.954626296559	1562.00334771438	480.59898142059	134.333527221008	723.5669630612	1144.86727578103	166	1559.74878248011	644.538915748708	147.938843073884	899.545865284862	954.588435525933	181	1191.74601988123	1164.9061203378	182.1138973788	1902.18993896581	1274.55430528603	146.113897378801	1558.23325119086	951.45590656861	171	1869.5795663337	1240.37088938359	134.673389095498	2197.2883031406	789.29139491543	208.098108479468	1507.76470292227	1078.14406730469	139.114159236662	1703.25733140574
