Light	Light	Light	Light	Light	Light	Light	Light	Light	Light	Light	Light	Light	Light	Light	Light	Light	Light	Light	Light	Light	Light	Light	Light	Light	Light	Light	Light	Light	Light	Light	Light	Light	Light	Light	Light	Light	Light	Light	Light	Light	Light	Light	Light	Light	Light	Light	Light
Optode1-730nm	Optode1-Ambient	Optode1-850nm	Optode2-730nm	Optode2-Ambient	Optode2-850nm	Optode3-730nm	Optode3-Ambient	Optode3-850nm	Optode4-730nm	Optode4-Ambient	Optode4-850nm	Optode5-730nm	Optode5-Ambient	Optode5-850nm	Optode6-730nm	Optode6-Ambient	Optode6-850nm	Optode7-730nm	Optode7-Ambient	Optode7-850nm	Optode8-730nm	Optode8-Ambient	Optode8-850nm	Optode9-730nm	Optode9-Ambient	Optode9-850nm	Optode10-730nm	Optode10-Ambient	Optode10-850nm	Optode11-730nm	Optode11-Ambient	Optode11-850nm	Optode12-730nm	Optode12-Ambient	Optode12-850nm	Optode13-730nm	Optode13-Ambient	Optode13-850nm	Optode14-730nm	Optode14-Ambient	Optode14-850nm	Optode15-730nm	Optode15-Ambient	Optode15-850nm	Optode16-730nm	Optode16-Ambient	Optode16-850nm
849.193637951388	159.286149311173	1514.30980304383	1304.25074748867	264.503218917434	2013.47870818911	962.838123963857	198.025106444853	1809.61745788434	1368.41507012256	159.95927654881	2055.62484655084	1014.07848657018	187.303526817689	1938.42514901304	1148.75060570007	149	1864.61415345256	889.995557514986	150.11978694057	1769.48759488699	1162.56491101315	205.935497326854	1868.77705522364	792.095207176738	164	1257.09962621334	1702.83337334656	221.195235687953	2517.7541576692	1080.34782289342	222.754553460168	1897.03797418578	1369.98114226602	146.212701107848	1928.53937337847	987.270968210032	211.001327222897	2175.86930363923	1440.67371823498	134.8330878928	2789.72414204577	926.704035037824	151	2167.51072080067	1087.64074791549	155.035529024564	2073.18936810457
848.488910381439	159.379613215047	1512.72569142679	1302.75905106713	264.353532556092	2010.30688718712	961.61525250562	198.057123506049	1807.269175067	1367.13224365893	159.976220778044	2052.0444290388	1013.53752941204	187.379613215047	1938.48440927464	1148.43266878434	149	1864.07171193765	889.528796316178	150.118547631051	1769.7395298238	1162.94107966454	206.041680222998	1869.73935947141	793.738192345021	164	1260.81792037915	1705.40946486681	221.321510219514	2524.26708263725	1080.48687976492	222.768169922447	1898.15104179271	1371.39035770403	146.256398176291	1932.52753031335	986.685832175939	211.005977475147	2177.09835408732	1439.98509155401	134.882067301247	2790.99979524898	926.1124683265	151	2169.07249576248	1086.94994853143	155.046700926337	2073.89495567835
847.96650504722	159.476826184648	1511.48471980236	1301.3739193559	264.152226342173	2007.11896134391	960.473136580688	198.102663425828	1805.0427502767	1366.48668426066	159.989577420289	2049.35335100708	1013.10483683205	187.459448678132	1938.99967438284	1148.40312087465	149	1864.31875389335	889.067939492638	150.112832013765	1770.29289896205	1163.44155103037	206.141805662347	1871.18838179929	795.447431429646	164	1264.95443318581	1708.07414521399	221.441747592821	2531.61482458341	1080.6301097185	222.781435522828	1899.6534095556	1373.08661039442	146.296947682998	1937.63487615364	986.25742759347	211.016400054859	2178.37210929775	1439.7169924998	134.922443019025	2793.08518699242	925.647619956061	151	2170.78712238079	1086.32075742393	155.067134401264	2074.39139692593
847.689416311105	159.57204502648	1510.78628912603	1300.17425267361	263.921913962277	2004.14333472385	959.492990186545	198.16463362509	1803.14562360596	1366.54056632001	160	2047.83423635748	1012.84264463566	187.540551321868	1940.10742197459	1148.7139351805	149	1865.47759242349	888.723428697721	150.106182896144	1771.34500379864	1164.0899530622	206.239556978063	1873.19124280292	797.17305088778	164	1269.38590236132	1710.77773221524	221.553252383689	2539.57266357269	1080.81905243677	222.797721471864	1901.53146986284	1375.06938564226	146.333172108744	1943.7520320463	985.999868410621	211.036856247461	2179.70661622555	1439.8528088039	134.953299073663	2795.87268117687	925.331029236142	151	2172.64028405093	1085.73633789657	155.094153476797	2074.62294093689
847.704016796494	159.660312069993	1510.77416230624	1299.22770251314	263.687597555154	2001.58853447328	958.743661217126	198.244469088175	1801.75313588472	1367.31513758274	160.010422579711	2047.68321023301	1012.79658794889	187.620386784953	1941.88018563507	1149.4085555482	149	1867.6293065149	888.577316726103	150.101880377306	1772.99339936457	1164.90750423232	206.338272793732	1875.78655811536	798.874764414448	164	1273.97243840883	1713.49703383645	221.655749731121	2547.90748068154	1081.09170527027	222.819056133314	1903.72465169302	1377.33500162344	146.364968098146	1950.69146233612	985.908620813978	211.070480148293	2181.08893735421	1440.36314049031	134.974893555147	2799.23923116397	925.166856329009	151	2174.59645649198	1085.19055403391	155.124861433113	2074.58826739266
848.02921474049	159.738153405309	1511.49162772165	1298.5846135576	263.470142405072	1999.59462622583	958.267880076804	198.33836070711	1800.95745786011	1368.77725265782	160.023779221956	2048.93295012798	1012.98056210492	187.69647318231	1944.29697451157	1150.49365652791	149	1870.74554142873	888.660051233656	150.101880377306	1775.20073187959	1165.89725312346	206.439442918267	1878.94998716953	800.521928341873	164	1278.56818831363	1716.21504536913	221.747365996432	2556.3784406493	1081.46542918959	222.84537917001	1906.11997346516	1379.84443764575	146.391098726058	1958.16572213812	985.957668389644	211.118280432165	2182.46195343038	1441.19940324011	134.988250197392	2802.99989196321	925.140647935918	151	2176.57749899127	1084.68845000132	155.15462082999	2074.31692505346
848.647434799257	159.803872670298	1512.85805520846	1298.26698988397	263.282128308959	1998.20531133885	958.070403193612	198.440682227785	1800.74190016534	1370.82324765033	160.04072345119	2051.40874608052	1013.3725178054	187.766494966138	1947.23538778221	1151.92454023144	149	1874.65219302017	888.943517529593	150.106182896144	1777.79598561897	1167.03533843183	206.54185235232	1882.57223414365	802.085842583401	164	1283.02392017256	1718.89253688249	221.82843764055	2564.71228852562	1081.92144020934	222.875138566887	1908.54922437651	1382.49708623083	146.41101344406	1965.7655154289	986.104092557891	211.179089624869	2183.72961142438	1442.28314757257	134.995349747749	2806.88113483487	925.218691927467	151	2178.45377857379	1084.24073684169	155.179616643789	2073.84119733332
849.505130924207	159.857411289131	1514.67891938921	1298.26765997284	263.126035562946	1997.35782684871	958.120476678845	198.542917717356	1800.983913619	1373.28754969813	160.061156926116	2054.73689777639	1013.91684460722	187.82843764055	1950.48997873579	1153.60034855737	149	1879.03776429269	889.349629918391	150.112832013765	1780.52072426274	1168.26876950079	206.641633533025	1886.46817283898	803.539949338276	164	1287.20227252219	1721.4612190961	221.899869048056	2572.62387461177	1082.40829666023	222.905846523203	1910.816833555	1385.13612814433	146.42347614069	1973.00670145257	986.297385115238	211.247988558491	2184.77253157723	1443.5118429967	134.998672777103	2810.53328413474	925.354503059065	151	2180.05504490966	1083.85757522602	155.196301052989	2073.17637489084
850.525598754304	159.899869048056	1516.68998498336	1298.554245383	262.995153306787	1996.90504630452	958.363894473213	198.636532848037	1801.49259264732	1375.96451701241	160.082403674188	2058.40867092782	1014.53521565165	187.88074007835	1953.80757549986	1155.37819758525	149	1883.4955090795	889.77431301668	150.118547631051	1783.08867675578	1169.52132971545	206.734284163753	1890.39940111088	804.858915490673	164.001327222897	1290.98813424328	1723.82488586048	221.963166470215	2579.83184076719	1082.85341922045	222.93552004453	1912.72989412769	1387.56670654842	146.427963235515	1979.39624767119	986.488781924202	211.316859967263	2185.48383904864	1444.76804126706	135	2813.58415207045	925.498418755617	151	2181.20662159913	1083.54520593661	155.202164422313	2072.31802024637
851.616577281906	159.932865598736	1518.60994760678	1299.06942195231	262.879013370664	1996.65090374994	958.736198336451	198.714807460636	1802.05779080158	1378.63120689644	160.101082211157	2061.86952170917	1015.14486955712	187.922443019025	1956.93044910315	1157.10093359276	149	1887.59223416258	890.117825408667	150.11978694057	1785.2507640647	1170.70940764516	206.814932899984	1894.10974613429	806.021679273428	164.004650252251	1294.30608972346	1725.88152524585	222.019106252029	2586.11558543831	1083.18300492737	222.962599578164	1914.14969646089	1389.60017876567	146.423113621331	1984.53270316936	986.640733135759	211.375917696778	2185.79511493518	1445.93587183178	134.998672777103	2815.69826167185	925.605542871845	151	2181.76320288917	1083.29956225961	155.194973830092	2071.24584880913
852.691525047239	159.957949325913	1520.2051291445	1299.74474906404	262.764569917604	1996.39959230443	959.179397895762	198.774209448794	1802.5064692251	1381.08445049707	160.1138973788	2064.62876477028	1015.67524180191	187.953299073663	1959.63682070961	1158.62289938244	149	1890.94145692406	890.30720836273	150.1138973788	1786.84333135385	1171.75652579741	206.880392344938	1897.36636097394	807.016510333826	164.011749802608	1297.12584157094	1727.54758391673	222.069047031943	2591.3374904402	1083.34305695466	222.987970580652	1915.01061053483	1391.09197647693	146.40917610532	1988.17472805281	986.736596483198	211.417170204715	2185.70178229875	1446.9198977522	134.995349747749	2816.65874054031	925.646087906989	151	2181.65198700429	1083.11066973556	155.174966391539	2069.94597509813
853.682054076954	159.976220778044	1521.33666182104	1300.50749137695	262.643296071481	1996.00111997318	959.651130601268	198.814932899984	1802.74323219156	1383.16709178252	160.118459717673	2066.35122069112	1016.08272734209	187.974893555147	1961.78023988865	1159.83825681924	149	1893.27631108309	890.316510915689	150.102409434054	1787.82198583179	1172.60954025859	206.929519851706	1900.00216860597	807.848510821464	164.023779221956	1299.47096275688	1728.78464081118	222.113111630505	2595.48090837938	1083.3163992436	223.012029419348	1915.34404054424	1391.97722444631	146.386969664469	1990.29120107741	986.777143777366	211.435936655062	2185.27127611657	1447.65187717756	134.988250197392	2816.41521180015	925.603738345383	151	2180.89248979595	1082.95573576989	155.142871027382	2068.42989740539
854.548899485355	159.988250197392	1521.98829240633	1301.29624159621	262.512734080186	1995.38750209225	960.134512746347	198.840467059898	1802.76893103899	1384.79418780227	160.1138973788	2066.92576782303	1016.35634089484	187.988250197392	1963.30753623152	1160.70052227432	149	1894.49793894569	890.167772254955	150.088381149336	1788.25842347207	1173.24927350921	206.963143752539	1901.94402814459	808.536635015647	164.042050674087	1301.41420636989	1729.60762553746	222.151297800637	2598.65262293849	1083.12396588786	223.037400421836	1915.27241718589	1392.28050959973	146.360237864247	1991.06501649329	986.784613463147	211.433570259574	2184.63235576136	1448.1091607022	134.976220778044	2815.09754290055	925.483080486388	151	2179.59970939829	1082.81625493621	155.101082211157	2066.74816821473
855.286047312467	159.995349747749	1522.25643055628	1302.06770368633	262.376290185693	1994.58233389306	960.633074513372	198.855018701199	1802.66845269283	1385.95666481216	160.101082211157	2066.46411628011	1016.51409469923	187.995349747749	1964.25954594973	1161.21923463076	149	1894.68119603287	889.921713621764	150.078884203872	1788.3165851564	1173.68615826026	206.983599945141	1903.22205094167	809.116953188468	164.065807178367	1303.07065982671	1730.08830778754	222.182939673143	2601.07544700554	1082.82177182025	223.06447995547	1914.98451603469	1392.11381821757	146.331173243374	1990.85895129073	986.79403859803	211.41742419649	2183.94675328138	1448.31659794234	134.95927654881	2813.00183819774	925.305792126898	151	2177.96454389538	1082.68138460045	155.053430025607	2064.9963164939
855.915752828498	159.998672777103	1522.32012843151	1302.8040839819	262.243141865278	1993.69246438512	961.164106468227	198.863813004571	1802.57891910663	1386.72039975993	160.083730897085	2065.26548622265	1016.59789202064	187.998672777103	1964.74526440028	1161.45496724228	149	1894.03438398958	889.660894996169	150.080902728005	1788.19917393724	1173.96317247945	206.994022524852	1903.95064968686	809.635139556926	164.094153476796	1304.58232463519	1730.33816894483	222.209378078494	2603.04434524492	1082.48429062477	223.094153476796	1914.69886776496	1391.6420262177	146.306064029174	1990.13055300261	986.847234507892	211.397762695268	2183.37876543101	1448.34210013859	134.938843073884	2810.53559574381	925.107671711313	151	2176.21964168724	1082.55645578131	155.004650252251	2063.31057779131
856.478053662496	160	1522.38470828759	1303.51036076303	262.12470834005	1992.8700731614	961.746758204799	198.869702566341	1802.63697904857	1387.20422496068	160.065807178367	2063.73441367712	1016.65353180553	188	1964.91789275209	1161.49688103384	149	1892.85571352595	889.462537626269	150.10003169771	1788.1061031906	1174.13577307366	206.998672777103	1904.30759588227	810.139798377091	164.124861433113	1306.10241493421	1730.48349123617	222.23059389652	2604.88455353542	1082.18518844673	223.124861433113	1914.62365378863	1391.05076798684	146.287717402569	1989.35271805729	986.98636047676	211.386725183258	2183.07032540529	1448.28592660225	134.917596325812	2808.14232704614	924.932741985347	151	2174.60186544443	1082.46705618444	154.959646999898	2061.85064752906
857.013968478442	160	1522.63444756136	1304.20431662505	262.029489498217	1992.27680943545	962.387923693048	198.87381134399	1802.94074685904	1387.55030543121	160.052473253798	2062.29581202485	1016.72394190132	188	1964.94171622701	1161.4427060757	149	1891.46428128107	889.386337564278	150.138736624767	1788.19973865328	1174.26567293305	207	1904.49862134854	810.678396325687	164.155948052887	1307.77602825708	1730.64577897981	222.250101529684	2606.89542866272	1081.9825564797	223.155948052887	1914.92077057837	1390.50746770596	146.279858226787	1988.9260362293	987.244551559794	211.39180315057	2183.12061133776	1448.26186072571	134.898917788843	2806.23456779686	924.827172259049	151	2173.31600136991	1082.45443846072	154.922697010799	2060.77555751943
857.553897762709	160	1523.19535158412	1304.90761953965	261.965097456126	1992.0479522972	963.07469609679	198.876872874622	1803.53026990952	1387.89427010681	160.047558443912	2061.32233925131	1016.83749301253	188	1964.96016193315	1161.37458825831	149	1890.14116555214	889.461381215858	150.194911778893	1788.58758989203	1174.40609303774	207	1904.71578946903	811.290659869844	164.185594118937	1309.72588725591	1730.9242078865	222.270530267009	2609.31388490945	1081.91405277171	223.18426689604	1915.68987672629	1390.14114993556	146.283607292514	1989.12743425499	987.644448357099	211.416723720321	2183.58432934864	1448.37906445118	134.8861026212	2805.13096526137	924.835127268401	151	2172.5141705785	1082.56897531716	154.897852423808	2060.21507837618
858.103175165348	159.998672777103	1524.11630338034	1305.62581992395	261.932259373162	1992.26053620347	963.772280461716	198.877686147768	1804.38211500849	1388.33593433948	160.052473253798	2061.07853725053	1017.00389496579	188	1965.08847923564	1161.34862320289	149	1889.10612637876	889.691269206888	150.263697312114	1789.33337976057	1174.59228170706	207	1905.1184283469	812.008129174152	164.212701107848	1312.03407866437	1731.38946141434	222.294148010227	2612.27410544127	1081.99585420372	223.208050855597	1916.95408886363	1390.03084610371	146.298798262478	1990.08037461856	988.195065554309	211.458777035659	2184.48142555261	1448.72293962191	134.881540282327	2805.0325777758	924.99071369175	151	2172.28919853373	1082.85681463937	154.886190534578	2060.25376061045
858.649134872037	159.994022524852	1525.3856872144	1306.35352126757	261.928394869207	1992.93557315877	964.434325057024	198.876872874622	1805.43511976779	1388.93636389966	160.065807178367	2061.72381904723	1017.21893293391	188	1965.40851326625	1161.39320543887	149	1888.50608557211	890.062348344353	150.338889763857	1790.47189829564	1174.84302209276	207	1905.81835604281	812.855648722739	164.237693446878	1314.73592081555	1732.08746254444	222.32262959495	2615.81184593841	1082.22998414865	223.225943644269	1918.67186627037	1390.21369069927	146.323956817847	1991.78136066726	988.89206101794	211.511149958225	2185.79854376462	1449.34996367764	134.886102621199	2806.00358268109	925.318997873873	151	2172.6715197571	1083.3536027788	154.887429844096	2060.91086071934
859.164302006079	159.982272722244	1526.94547796494	1307.06842311501	261.947353022915	1994.03977973514	965.01263934147	198.87381134399	1806.61278282011	1389.71513395023	160.083730897085	2063.31225940342	1017.46956872342	187.998672777103	1965.96677844719	1161.51104536835	149	1888.41528058631	890.55268682614	150.414342035635	1792.01493079129	1175.16016493339	207	1906.86940889549	813.852237642065	164.260803726135	1317.82682823272	1733.04903208542	222.354957202931	2619.8846038842	1082.61494442439	223.237024504179	1920.76202542251	1390.69939651117	146.356284425828	1994.14216950622	989.72189453191	211.566400167118	2187.50742480854	1450.28545461042	134.898917788843	2808.00035757751	925.833292109795	151	2173.64592697427	1084.07745444436	154.898917788843	2062.14823265807
859.617457174014	159.959820723185	1528.72428210946	1307.74337863114	261.980893747971	1995.50399170496	965.470021532719	198.869702566341	1807.85265597551	1390.66589906228	160.102409434054	2065.82106069749	1017.74176082347	187.995349747749	1966.78158001058	1161.69139974097	149.001327222897	1888.85013481326	891.143613686184	150.484991100041	1793.96112101741	1175.53413958281	207	1908.27173007541	815.011474665774	164.282824243992	1321.2625734398	1734.29274751579	222.3885567074	2624.39156153354	1083.14889727476	223.240773569906	1923.12098173918	1391.47945505822	146.39320695965	1997.03165281867	990.660958194282	211.617947786668	2189.57411245001	1451.51880717762	134.918923548709	2810.90244955649	926.532419923132	151	2175.17150008238	1085.02124990216	154.918923548709	2063.88044382696
859.991449684317	159.923747524246	1530.66129426847	1308.35770395325	262.021760697823	1997.24568174091	965.793929714819	198.865140227468	1809.1258918874	1391.77455654396	160.119874853948	2069.17734075555	1018.02263992172	187.988250197392	1967.85281121138	1161.9143844462	149.005977475148	1889.78390293733	891.819362538851	150.547480056228	1796.29973500029	1175.94690021674	207	1909.98420703111	816.337344114301	164.302831682546	1324.98101797442	1735.81980631369	222.41938350714	2629.2153491972	1083.8271739116	223.237024504179	1925.6550049639	1392.52705034691	146.431133309748	2000.321830992	991.682782206137	211.66163929289	2191.96183837388	1453.0132779366	134.943493326134	2814.54067727675	927.401352246417	151	2177.18719005091	1086.15808345348	154.943493326134	2065.99338705765
860.284421958342	159.874340400738	1532.72143562296	1308.90197371858	262.06460192738	1999.18649918317	965.994807232095	198.860996176347	1810.4436726436	1393.02613247137	160.136186995429	2073.28167124957	1018.30863536876	187.976220778044	1969.16401960256	1162.16907340587	149.016400054859	1891.16020204886	892.570781276728	150.600476804552	1799.00041627135	1176.38085808679	207	1911.93419406167	817.820571589607	164.321424343963	1328.9108079558	1737.60894247002	222.444534313887	2634.24464669506	1084.63876722936	223.225943644269	1928.29764391693	1393.79605549048	146.468313535843	2003.89849202779	992.757441267513	211.696900897372	2194.63568906382	1454.70577596664	134.971026351418	2818.72791216123	928.409538315213	151	2179.62727278276	1087.44032732928	154.971026351418	2068.36749756313
860.514623577334	159.815715948506	1534.90399707714	1309.38440720142	262.107059686304	2001.26770768294	966.109778487163	198.858194337653	1811.85537781996	1394.41058096003	160.155403878512	2078.02438283	1018.60455880447	187.95927654881	1970.70911163608	1162.45425949987	149.036856247461	1892.92816281831	893.390369118672	150.644689501435	1802.03274664212	1176.82208945008	207.001327222897	1914.05182929321	819.438265533075	164.33756254096	1332.98527067766	1739.61698941205	222.464536945266	2639.38731135661	1085.56490488786	223.208050855597	1931.01905286491	1395.22660905721	146.505260396456	2007.66158069778	993.855794215706	211.726048490436	2197.56131181327	1456.50880684665	135	2823.26687410189	929.511758605078	151	2182.41629855527	1088.80494416684	155.001327222897	2070.8901439284
860.717610326701	159.755357188539	1537.23092430607	1309.82949398854	262.149426403365	2003.45045956205	966.195353949634	198.856439399695	1813.4337886986	1395.91670606701	160.183312162058	2083.27763536737	1018.92151038108	187.938843073884	1972.49034570719	1162.77903035835	149.069152925397	1895.04728127434	894.271555695098	150.682356984215	1805.36172712046	1177.26255001592	207.004650252251	1916.28339480601	821.148519252444	164.351964751535	1337.14653254033	1741.77063451868	222.481476436899	2644.57927987975	1086.57298281435	223.18426689604	1933.82356514731	1396.74053773305	146.542633363015	2011.52624016529	994.949556759764	211.750980990806	2200.70092372308	1458.32461626685	135.028973648582	2827.96271937125	930.652696990145	151	2185.4689606152	1090.18297673791	155.033623900832	2073.46791629681
860.928924054951	159.702616735854	1539.71767739011	1310.26226432476	262.194712193427	2005.69994614321	966.312934522736	198.856439399695	1815.24302698061	1397.50751982408	160.224463328309	2088.86196192992	1019.27688560573	187.917596325812	1974.52405442908	1163.15890174178	149.113630179914	1897.48677811713	895.205687388199	150.716383162711	1808.95038433844	1177.7018440071	207.011749802608	1918.59888727497	822.900418735027	164.36532139378	1341.34958804559	1743.98695012777	222.500198321767	2649.78676271947	1087.62540614526	223.157275275784	1936.74490429006	1398.25941172876	146.582601995955	2015.41745901995	996.019942646832	211.773942249907	2204.02665394962	1460.0624824989	135.056506673866	2832.652887914	931.779232169159	151	2188.70676972582	1091.51492032873	155.068256476474	2076.04628697772
861.171416688254	159.66656069237	1542.34562630297	1310.69658812131	262.24553445321	2007.96671086841	966.511903835614	198.858194337653	1817.31533211989	1399.10941762252	160.280970002175	2094.52062079625	1019.68545420683	187.898917788843	1976.80785017055	1163.59551522335	149.167339822261	1900.18368223026	896.178064265473	150.749379713391	1812.74141774278	1178.13936800529	207.023779221956	1920.97150697852	824.637175707361	164.379613215047	1345.55544463111	1746.17929737389	222.525706289236	2654.98879038748	1088.68217790352	223.129511685363	1939.82191741507	1399.70999128952	146.626788500392	2019.26026164538	997.050671622189	211.794382965743	2207.5042797577	1461.63630124594	135.081076451291	2837.19351624083	932.840148444022	151	2192.04052413673	1092.74782840642	155.104855673248	2078.59319011106
861.44845514983	159.652418301829	1545.04503226169	1311.12773178443	262.30176631751	2010.17506596643	966.820885831114	198.860996176347	1819.63021509807	1400.61291121914	160.349868935797	2099.92488417377	1020.15182277466	187.8861026212	1979.3051638602	1164.066762577	149.224209336535	1903.01365779588	897.165497290169	150.782895020996	1816.65244998873	1178.56754829559	207.042050674087	1923.35751077479	826.303643403876	164.398981324938	1349.71896038837	1748.2698462595	222.562831901506	2660.14236410179	1089.70757069706	223.107230502302	1943.0686686749	1401.0256829641	146.676729280307	2022.95922454735	998.030698502469	211.811065696255	2211.10445666542	1462.97791077658	135.101082211157	2841.47729678106	933.792964170253	151	2195.38446398148	1093.84314359773	155.143132885243	2081.09859823539
861.731096761662	159.661910440119	1547.69046739374	1311.51739008095	262.362575510214	2012.22093121424	967.231543137873	198.863813004571	1822.10975944567	1401.86839752787	160.423042863408	2104.69728954509	1020.65992598515	187.88021305943	1981.92202177437	1164.51712367223	149.276136516073	1905.77190006487	898.133160075883	150.817037609181	1820.56180312827	1178.96327888718	207.065807178367	1925.67428947784	827.85199802933	164.425414633549	1353.78639361722	1750.19474521493	222.612760215675	2665.17800835512	1090.67020345586	223.094236652574	1946.46395026668	1402.15172350009	146.729892710451	2026.40178890984	998.948879548783	211.819583152234	2214.78012533954	1464.03309968847	135.1138973788	2845.40205350914	934.606369524968	151	2198.63368049452	1094.77236766865	155.179704557167	2083.54437331983
861.967349581291	159.690866933246	1550.11244438266	1311.80743960051	262.424370086305	2013.97966530824	967.703132630332	198.86505231409	1824.6205226119	1402.71627563905	160.488749710543	2108.45711039867	1021.17125794736	187.881452368949	1984.49679703719	1164.85827435576	149.314760770662	1908.1781547138	899.03286325657	150.850573596635	1824.30665146707	1179.28558139674	207.094153476796	1927.7924400137	829.244340443369	164.4614861538	1357.67975122927	1751.90930722701	222.674187261648	2669.96775487019	1091.54464851128	223.094523927885	1949.92246402491	1403.04548701664	146.783434388198	2029.44544209027	999.791330940872	211.816687837942	2218.46797585131	1464.7626457307	135.118459717673	2848.88102010848	935.256366387948	151	2201.67654057514	1095.51724873809	155.21261319447	2085.89998007512
862.09006733616	159.731577966583	1552.12307757104	1311.92834774507	262.482020611274	2015.3280968683	968.166633073083	198.862061541382	1826.99121395423	1403.01130848689	160.53439061287	2110.88278467101	1021.62485861552	187.887167986235	1986.82086481886	1164.98340151799	149.33343930763	1909.91635521734	899.810892560586	150.882517733985	1827.70458579219	1179.48329288262	207.124861433113	1929.55455309107	830.457870442611	164.506338179345	1361.30421555236	1753.38931025418	222.742280163034	2674.33572194286	1092.30978762834	223.108715370028	1953.29978524974	1403.67671607517	146.831612571582	2031.93097289373	1000.54152331204	211.799222418047	2222.07551615441	1465.14524599455	135.1138973788	2851.82198216482	935.72866174286	151	2204.38710519497	1096.06808056347	155.238758811913	2088.10620408219
862.031577504295	159.774992497316	1553.53693663406	1311.81735352185	262.531321575291	2016.15450069066	968.540631883996	198.853093652666	1829.02049425015	1402.65083077399	160.551073343381	2111.76095334912	1021.95038291597	187.893817103856	1988.66376148356	1164.79448463516	149.328876968758	1910.6861863413	900.412021803698	150.911618850664	1830.57103786476	1179.50848384397	207.15462082999	1930.79964393562	831.482104834905	164.556837270904	1364.55353258941	1754.62178303592	222.809738473358	2678.07909145885	1092.94262763359	223.133549705089	1956.40497325903	1404.02427989346	146.869690148487	2033.69994964652	1001.18141186774	211.765799830994	2225.49419012516	1465.18161706648	135.102409434054	2854.14732431313	936.019680880779	151	2206.64478044464	1096.42839868727	155.255703041147	2090.08704811464
861.735464508148	159.811856251725	1554.19318646189	1311.43174157976	262.568854272398	2016.37624156919	968.743178190914	198.835635473681	1830.49972852717	1401.5940252999	160.53439061287	2111.0176218086	1022.0781498195	187.896792399797	1989.81831302943	1164.22048154884	149.301945603018	1910.27609706478	900.791023056673	150.937515850987	1832.75942571022	1179.32562908284	207.179616643789	1931.40943386997	832.318793557168	164.608097545571	1367.32757074864	1755.60706277181	222.86836292559	2681.00742741327	1093.42045366916	223.162239137273	1959.02571972348	1404.08647112972	146.893446652767	2034.63423093863	1001.69058682089	211.716818743859	2228.59889307684	1464.89281867488	135.088381149336	2855.79493138752	936.131551365187	151	2208.34289363381	1096.60917571598	155.263347540875	2091.75425077683
861.162047541669	159.836693597807	1553.9684723054	1310.75190673281	262.594592805004	2015.94245671301	968.699234920019	198.809738473358	1831.22946072057	1399.86156950961	160.49007693344	2108.71849876982	1021.95501552898	187.893469370443	1990.12330680221	1163.24159727285	149.257457979105	1908.59433569338	900.92043766916	150.95927654881	1834.1748260424	1178.92873726116	207.196301052989	1931.32808993207	832.979673290277	164.654539742533	1369.55336971132	1756.35339506442	222.911997721638	2682.9924395311	1093.71813865227	223.185878473278	1960.96846821558	1403.87618791155	146.90331404932	2034.69172496797	1002.05197251518	211.653121477772	2231.27594838294	1464.32313155387	135.078884203872	2856.76796945622	936.076099470549	151	2209.42418821602	1096.63080212604	155.263435454253	2093.04291683161
860.289085649723	159.84698870942	1552.77243247907	1309.77460348721	262.608636982345	2014.81872212743	968.345998021915	198.775007614943	1831.02746338422	1397.52347263398	160.427693115658	2105.03304831371	1021.54918029787	187.882067301247	1989.48719171778	1161.88885813384	149.202962588463	1905.68829648948	900.793314959018	150.976220778044	1834.79033545758	1178.33574967128	207.202164422313	1930.57626166407	833.478673964645	164.691398689768	1371.19847169038	1756.86498206252	222.936041501229	2683.99873010634	1093.80866702244	223.195762706874	1962.088393339	1403.42027683727	146.901196270953	2033.92696022004	1002.25080489669	211.577908395805	2233.43925204665	1463.53042556476	135.082229950902	2857.13670452672	935.86874151407	151	2209.88899979371	1096.51518234075	155.259287928362	2093.91977670694
859.112270844627	159.843268898591	1550.56452424017	1308.50905501214	262.612675002071	2012.99289017981	967.63955130053	198.731764107723	1829.75980519981	1394.69057080865	160.362945961302	2100.2281559942	1020.85790487343	187.863388764279	1987.8988678313	1160.24640755362	149.146906347334	1901.73684622282	900.427946118293	150.988250197392	1834.6562927728	1177.58968617028	207.196301052989	1929.25240209339	833.83468081156	164.717339934519	1372.2768858156	1757.1511188748	222.941549271054	2684.09439067723	1093.67029413024	223.187071306411	1962.31012395842	1402.7641089785	146.892940313696	2032.49425964932	1002.27673910238	211.493510593848	2235.03127530611	1462.58153368605	135.104681949961	2857.03030507608	935.527970614108	151	2209.78943076496	1096.28135736755	155.256936522406	2094.3832589103
857.64153706557	159.830189103739	1547.35104109066	1306.96611233928	262.610388445534	2010.4645339912	966.554374353532	198.682089923271	1827.35589049609	1391.48672580154	160.310726699279	2094.61093850995	1019.90789692678	187.839401694862	1985.4218082457	1158.4323750185	149.09668595068	1897.02826815584	899.867786815199	150.995349747749	1833.88680765525	1176.75107596021	207.180943866686	1927.51346648605	834.066791971668	164.734032071863	1372.85756664453	1757.22785669227	222.931538375839	2683.4629378793	1093.29439003029	223.158385002713	1961.6523403858	1401.97514148952	146.884775398303	2030.64219794403	1002.12653379572	211.403281805949	2236.02795231842	1461.54251292929	135.149159204479	2856.61979690739	935.073909773524	151	2209.22034646385	1095.94228511697	155.260519371794	2094.45869037446
855.897140767746	159.811868669578	1543.18094238246	1305.15193878846	262.602495328685	2007.23184520152	965.087703293401	198.627579055862	1823.81583026392	1388.03620432894	160.282914057255	2088.48123074207	1018.74825121147	187.813078658166	1982.18019935213	1156.57765105647	149.057123506049	1891.90387342659	899.175802199814	150.998672777103	1832.64291284815	1175.88399305791	207.159271082241	1925.54369822894	834.196762921049	164.745336131444	1373.0452314996	1757.11818211752	222.911618850664	2682.35803681322	1092.68856840763	223.1138973788	1960.21319584519	1401.13398163453	146.881540282327	2028.67329326572	1001.8090430802	211.3112584558	2236.44462146097	1460.47931401556	135.214040748598	2856.09193294574	934.529601752061	151	2208.30513155109	1095.50653464913	155.272901262155	2094.19005539398
853.915575653511	159.791407669802	1538.15574386532	1303.07551027492	262.590085913474	2003.30414729072	963.263724760323	198.570979661445	1819.22338131363	1384.4579998686	160.284648364989	2082.11428783847	1017.44697706814	187.787298892152	1978.33624229791	1154.80774526331	149.029756697104	1886.70663835154	898.429003873087	151	1831.10187127389	1175.05029737257	207.137938458618	1923.52212297152	834.248941392588	164.756590935836	1372.97053745781	1756.85724182144	222.887167986235	2681.06958760694	1091.88107778778	223.061156926116	1958.15832140786	1400.3302396268	146.8861026212	2026.89800894245	1001.34279417464	211.220969482958	2236.32178854262	1459.45100331594	135.292670960696	2855.60139611883	933.920766173463	151	2207.16517896254	1094.9825121697	155.294855701167	2093.61963908491
851.745375879069	159.771140411214	1532.42141585747	1300.75076306255	262.57204502648	1998.70094781332	961.132669877332	198.514747797145	1813.73666934113	1380.85588390746	160.315387251352	2075.72538665044	1016.08033646822	187.762306553122	1974.06703795722	1153.22298293342	149.013077025505	1881.73157752171	897.706902168831	151	1829.42327857389	1174.30034727366	207.1239101739	1921.59138670881	834.256402913892	164.771943384538	1372.7779848214	1756.50006860396	222.862323399243	2679.8887523972	1090.92300066474	223.009229746578	1955.70507896443	1399.65584941889	146.898917788843	2025.59423388521	1000.75858716703	211.136204150883	2235.7269389494	1458.51071605699	135.374940245121	2855.25544607428	933.276680552506	151	2205.90963187512	1094.3848789959	155.324340288479	2092.78829718437
849.450292323609	159.752038966359	1526.16569137957	1298.20602126908	262.54572511827	1993.46525785641	958.770078835388	198.461042961972	1807.57895889567	1377.32144002912	160.367579058098	2069.4601772339	1014.71835502767	187.739196273865	1969.54656452139	1151.88188932891	149.004650252251	1877.18673977634	897.077200444498	151	1827.72916557919	1173.66494621801	207.124257907312	1919.83974222767	834.257100222078	164.794486355888	1372.60613455035	1756.10978017956	222.840816831137	2679.0613502743	1089.87997736697	222.966476430399	1953.08949284658	1399.18668709044	146.917596325812	2024.96093728383	1000.09490222957	211.060612751741	2234.7490001734	1457.69892969648	135.45269922928	2855.09861238698	932.627840647685	151	2204.62592802054	1093.73489082343	155.359670972196	2091.73165151526
847.109766186722	159.734633934993	1519.6119450634	1295.4928618655	262.509293816523	1987.67921027158	956.275834247691	198.411796492582	1801.02520459371	1373.93290405514	160.429806086851	2063.40094230018	1013.41847372333	187.718502978905	1964.94002163308	1150.79355580213	149.001327222897	1873.17648498509	896.587141055329	151	1826.10205367167	1173.15065836022	207.144714099915	1918.30074079179	834.292941051728	164.823618472186	1372.58201350353	1755.75623890867	222.824945695083	2678.76985197855	1088.82616704533	222.938575874997	1950.55059217074	1398.97038764298	146.938843073884	2025.09482578943	999.396686950206	210.997293802829	2233.4883874798	1457.04313645784	135.517816834724	2855.11050953909	932.003654775676	151	2203.37005933329	1093.06454529216	155.398317944461	2090.48330227697
844.810554764134	159.720517736897	1513.0015477612	1292.6833841947	262.460579035285	1981.46321562064	953.762905485874	198.368552985361	1794.37058318898	1370.75591353241	160.489291185144	2057.57134232648	1012.22340150412	187.700491346808	1960.39317736413	1149.92717341289	149	1869.6969709407	896.26276391149	151	1824.58470045785	1172.74841881674	207.188412847046	1916.95652337408	834.402175040739	164.858194337653	1372.8092077595	1755.49538533448	222.816514114655	2679.11713004908	1087.83157134298	222.92734726305	1948.30835165316	1399.00988888763	146.95927654881	2025.97292061664	998.710105763795	210.947353022915	2232.05656906509	1456.55401020087	135.566944341493	2855.22366429464	931.429555056795	151	2202.174230405	1092.41226105632	155.439448480488	2089.08395816596
842.645473519149	159.712113681318	1506.58504294782	1289.87277858235	262.400590864349	1974.98745506716	951.352480953258	198.332067188989	1787.9155719228	1367.84782530145	160.534407768324	2051.97433395743	1011.15912330004	187.685675206395	1956.04199802304	1149.21907865267	149	1866.67091800413	896.109016613303	151	1823.21245459383	1172.43252460921	207.256218890783	1915.76550518436	834.616667484906	164.893817103856	1373.36015093198	1755.36965481382	222.816514114655	2680.11885025869	1086.9578597268	222.930673351317	1946.54438051011	1399.27096275686	146.976220778044	2027.46065806742	998.078347943424	210.913322037245	2230.56870454149	1456.21799688979	135.600910081835	2855.3354191259	930.923112009564	151	2201.04755040123	1091.81509555145	155.484013648384	2087.57969611571
840.698296209779	159.7120826817	1500.59299327531	1287.1624493541	262.328889386611	1968.45138960254	949.157928121761	198.302041127076	1781.93059675124	1365.25015269032	160.558162593916	2046.60394109125	1010.24358493562	187.673139655491	1952.00286469546	1148.59569324885	149	1863.97335744436	896.122142311325	151	1822.02063850688	1172.17712198446	207.344338182257	1914.67493380644	834.950782590867	164.927093271276	1374.26803747108	1755.39120837948	222.824945695083	2681.71216809206	1086.24910624819	222.943493326134	1945.38575679863	1399.67958974161	146.988250197392	2029.34228180161	997.538375716853	210.895403125701	2229.13186093291	1456.00317353835	135.624256026508	2855.32276339378	930.49106546528	151	2199.9738684166	1091.30196429388	155.532386406475	2086.01648748096
839.0322978395	159.721209038133	1495.21635687111	1284.64451634336	262.248686393409	1962.06957576847	947.269067296607	198.277115867616	1776.63118123745	1362.98016519744	160.556435527091	2041.46291163228	1009.48522791329	187.660329225448	1948.37013614196	1147.98754234239	149	1861.4709842956	896.288844287951	151	1821.04882637157	1171.9562123184	207.446659702933	1913.63623940708	835.401055852037	164.954626296559	1375.52531864719	1755.54585704464	222.840816831137	2683.77375548154	1085.72795443174	222.960603771707	1944.89612603924	1400.14004239197	146.995349747749	2031.36177194133	997.119270735794	210.894617307832	2227.84818421309	1455.8653785333	135.642405506729	2855.08425180122	930.132840700887	151	2198.93521220212	1090.89181786254	155.584330741468	2084.45305507059
837.679375191266	159.739646706602	1490.58676500456	1282.38881476803	262.162760327934	1956.04556640165	945.736057775142	198.255158866772	1772.15721685783	1361.02632198886	160.532534692364	2036.56539431247	1008.88340595539	187.643362278538	1945.19111163908	1147.34051467533	149	1859.03770920332	896.587471978717	151	1820.31616461061	1171.74751657811	207.553340297067	1912.60256982561	835.94280123564	164.974893555147	1377.07868500107	1755.79079211587	222.862323399243	2686.12797325557	1085.39157026823	222.976220778044	1945.0610563784	1400.54555510923	146.998672777103	2033.2564363958	996.832052293444	210.909881843156	2226.78848910261	1455.74134910093	135.66156066888	2854.53148246779	929.832835149595	151	2197.89810334484	1090.58319215595	155.639082477376	2082.94048818653
836.637912294861	159.763607583574	1486.76138211037	1280.43364834568	262.073269569133	1950.54511611196	944.567190543822	198.232706867713	1768.55720791944	1359.34948922011	160.492183370951	2031.93032354745	1008.42260747463	187.617854311069	1942.46194738325	1146.61822542766	149	1856.56914015752	896.984063401815	151	1819.81121400334	1171.52986001226	207.655661817743	1911.52881676854	836.535561267935	164.988250197392	1378.83311031384	1756.06406584343	222.887167986235	2688.56141378791	1085.21335136805	222.988250197392	1945.78475941711	1400.79168464485	147	2034.7825426099	996.670822077071	210.939641240033	2225.99105464976	1455.56228399296	135.683562235202	2853.60261972655	929.565222451612	151	2196.82724203944	1090.35613452689	155.693059180666	2081.52334100225
835.874254039224	159.789416670519	1483.72122039564	1278.78327275774	261.983055770766	1945.67360478132	943.728267030059	198.206840867009	1765.78979021712	1357.88390610541	160.444005257139	2027.56724322674	1008.07242437494	187.578973760841	1940.12359525886	1145.80151957458	149	1853.99211508975	897.432285988668	151	1819.47698660257	1171.28131232143	207.743781109217	1910.36901409262	837.131957035127	164.995349747749	1380.67209563147	1756.29822132065	222.912946073561	2690.85232943602	1085.14932020084	222.995349747749	1946.9119400253	1400.79656441146	147	2035.74053424622	996.611855857629	210.977426029031	2225.44659230269	1455.2546729934	135.706895762022	2852.24661014236	929.296857869735	151	2195.67698660313	1090.17586359551	155.740056491214	2080.22380338215
835.333120235881	159.811493411316	1481.38005102186	1277.41490343635	261.894267536593	1941.46466762687	943.15728881982	198.176381527814	1763.73747943673	1356.55104130848	160.396194603872	2023.46034502168	1007.79013224356	187.524916385082	1938.07551590491	1144.8847679154	149	1851.26494457294	897.87701052603	151	1819.22242558756	1170.98048753886	207.811587152954	1909.07998660659	837.687159786382	164.998672777103	1382.46810955335	1756.43712870784	222.937515850987	2692.79074896575	1085.14939483751	222.998672777103	1948.24638868393	1400.51333531865	147	2035.99289507107	996.619009848506	211.016596495821	2225.11655230958	1454.75479570762	135.725771514948	2850.45040738797	928.992608177836	151	2194.41668482879	1090.00005519557	155.774209448794	2079.05574245393
834.949708299988	159.826682702592	1479.60445329094	1276.28571735413	261.80756615074	1937.88205409811	942.778177364938	198.141805662347	1762.2354123678	1355.27355672814	160.355846410945	2019.56452638426	1007.53007739476	187.456022258634	1936.19613847948	1143.87467583614	149	1848.37168569752	898.269452998976	151	1818.94638292122	1170.61333863137	207.856613122982	1907.62589640911	838.169699154581	165	1384.11146849587	1756.44603694847	222.95927654881	2694.21252628464	1085.1680843562	223	1949.5912613655	1399.93547047734	147	2035.48102011138	996.656637596098	211.048608957359	2224.94181196909	1454.02609195782	135.733078912766	2848.23233566914	928.62827308038	151	2193.03453907566	1089.79511071853	155.789683869405	2078.01952957088
834.663450154444	159.832939794479	1478.2456585214	1275.34330253057	261.724661788019	1934.83793499655	942.518850381549	198.106182896144	1761.10706296775	1353.98846590643	160.32819998526	2015.82635474374	1007.25239195607	187.376267468017	1934.37501842089	1142.79005364838	149	1845.33043476905	898.572816289398	151	1818.56874655839	1170.17482697914	207.879065122041	1905.9944774621	838.569785717685	165	1385.52910129321	1756.32658771778	222.976220778044	2695.03155136472	1085.17701540102	222.998672777103	1950.78526795904	1399.10522060966	147	2034.23644607376	996.691574264147	211.066338934888	2224.86688905687	1453.06197756702	135.723411151305	2845.66779378357	928.192093840042	151	2191.55178242793	1089.53839997403	155.783940727269	2077.12033765711
834.42941158164	159.829764863447	1477.17051145427	1274.54144508119	261.646545643137	1932.22288086079	942.324174116448	198.072906728724	1760.19757282024	1352.66704782482	160.314037310779	2012.20201402865	1006.93098814572	187.291343737799	1932.5352663136	1141.66221758963	149	1842.19348815982	898.772885762749	151	1818.05361456648	1169.67530226003	207.883189376457	1904.20680018565	838.899244605193	165	1386.6994663822	1756.11423865083	222.988250197392	2695.26494124382	1085.1657404111	222.995349747749	1951.72849332646	1398.1049208681	147	2032.39063680201	996.703398535808	211.065986463875	2224.85828266104	1451.90082845005	135.694373985709	2842.90050192763	927.6915552576	151	2190.03415844528	1089.23176504947	155.758853941179	2076.38201429768
834.224963252938	159.820272725157	1476.28777118139	1273.84715961055	261.575717827073	1929.94044657111	942.160630690367	198.045373703441	1759.4024295025	1351.31709244601	160.31352168234	2008.6812588231	1006.55406720468	187.209390496347	1930.65135316594	1140.52881324979	149	1839.04442660202	898.87378875797	151	1817.41839262569	1169.13848377686	207.87409096073	1902.32781294349	839.194038047646	165	1387.66305617082	1755.88316985332	222.996676970646	2695.0495872764	1085.14505868882	222.988250197392	1952.40081891955	1397.04764226564	147	2030.17375236513	996.686807788942	211.048090200434	2224.90826966607	1450.62090135634	135.64914016822	2840.13768471695	927.152155318212	151	2188.58319249516	1088.90067481425	155.720164490889	2075.84936871854
834.047648645992	159.808633553603	1475.55152064572	1273.24659482658	261.515009655006	1927.9191131033	942.015276251335	198.025106444853	1758.66723159831	1349.98383577235	160.322054127851	2005.29398302189	1006.12345637546	187.13740940187	1928.74874647283	1139.42767576286	149	1835.98560933617	898.892598187347	151	1816.73391241218	1168.59627765716	207.857673146993	1900.46136360673	839.498365204527	165	1388.50805066895	1755.71494192258	223.003323029354	2694.6091072967	1085.13174088041	222.976220778044	1952.84636260384	1396.04652204328	147	2027.87054229729	996.648579422839	211.017351314071	2225.036725763	1449.32751604415	135.595390971154	2837.61646742533	926.610760796507	151	2187.31984152856	1088.58469731381	155.675676866976	2075.57724333793
833.914751491258	159.79904869476	1474.96831711484	1272.74574807435	261.46614364696	1926.13278360534	941.892895417951	198.011749802608	1757.99502200349	1348.7422670708	160.334499331641	2002.1260687428	1005.64687247012	187.080902728005	1926.90350891669	1138.39338291314	149	1833.13956192459	898.853575103725	151	1816.1248409271	1168.08081045218	207.83948960824	1898.74821961258	839.861557698548	165	1389.36032313228	1755.69300711751	223.013077025505	2694.2238315738	1085.14682097503	222.95927654881	1953.16335091266	1395.20435396142	147	2025.78983616229	996.60524633957	210.981321463032	2225.28129116664	1448.1337753109	135.541440529882	2835.56486484547	926.108849997005	151	2186.35977866163	1088.32826704664	155.634266783781	2075.61233995147
833.848044203365	159.79650835479	1474.56818343199	1272.35858485716	261.431273195699	1924.57890846889	941.803629266085	198.004650252251	1757.41820515493	1347.67381443217	160.344511905544	1999.28370264405	1005.13799426921	187.042833722609	1925.21838627391	1137.45104639078	149	1830.63352836065	898.786490961004	151	1815.74385113377	1167.62204141345	207.824945695083	1897.34039935371	840.326625552554	165	1390.3551442574	1755.88967738774	223.029756697104	2694.17346184456	1085.21053777179	222.938843073884	1953.46943702907	1394.60391708867	147	2024.21666148773	996.577339955909	210.947259547316	2225.67917672589	1447.13944049321	135.496325555816	2834.15439587346	925.682463286452	151	2185.78512617702	1088.166403118	155.602058019224	2075.96645485076
833.866297537479	159.803698947011	1474.38287635468	1272.09860223126	261.409276436551	1923.26411436862	941.756762828831	198.001327222897	1756.97767522292	1346.8512520853	160.348379468412	1996.87545165723	1004.61349089033	187.023704752903	1923.79815323227	1136.62009476414	149	1828.57715659292	898.723870698698	151.001327222897	1815.75100079212	1167.24454281325	207.816514114655	1896.37580381827	840.923015147835	165	1391.6165398677	1756.34755522323	223.057123506049	2694.69731652473	1085.33507100204	222.917596325812	1953.88190062992	1394.29552335001	147	2023.38632843182	996.587220448697	210.923590956414	2226.2676778355	1446.42210973282	135.468134250335	2833.48515816772	925.361043067769	151	2185.64114513416	1088.1177939523	155.583358852032	2076.61275381947
833.976681166074	159.819056133314	1474.43104989983	1271.96769381901	261.397526633943	1922.19450765677	941.752003041571	198.001327222897	1756.7050648705	1346.32347379054	160.342756967586	1994.99822710486	1004.0928624159	187.022377530006	1922.72345492204	1135.91582437431	149	1827.04614192185	898.697867851861	151.004650252251	1816.27375966307	1166.96790924657	207.816514114655	1895.94810826797	841.66246351359	165	1393.23058405105	1757.07929706054	223.09668595068	2695.94142944097	1085.52543599633	222.898917788843	1954.48337642263	1394.30038330426	147	2023.43740018153	996.649947899945	210.914532095406	2227.06163407579	1446.01641474549	135.461843165949	2833.56104249557	925.157268934474	151	2185.91659820435	1088.17578301672	155.580302883622	2077.47743535787
834.170271470126	159.840728917759	1474.69976703924	1271.95548626255	261.391093918885	1921.3560271238	941.779585435968	198.005977475148	1756.60250797314	1346.10879849526	160.329043047154	1993.70599955341	1003.59992683638	187.036856247461	1922.02836231429	1135.35648627595	149	1826.0633132921	898.738645126717	151.011749802608	1817.36872369031	1166.80813029903	207.824945695083	1896.08618108099	842.542101040278	165	1395.23451583104	1758.07093285907	223.146906347334	2697.94619910052	1085.77853261866	222.886102621199	1955.31180346496	1394.61324149319	147	2024.40415094251	996.771749598507	210.92241739406	2228.04715599675	1445.91932729467	135.477080176423	2834.29611017053	925.069067904164	151	2186.55053041339	1088.31448592689	155.590977555223	2078.45325146167
834.424775359898	159.863388764279	1475.1434908674	1272.0374838242	261.383913696059	1920.71651874906	941.819568034607	198.017727277756	1756.63884911437	1346.19219090385	160.309936795125	1993.00242030182	1003.15779731013	187.065829896043	1921.69389054608	1134.95699725789	149	1825.59032858878	898.86548853853	151.023779221956	1819.00561890048	1166.77686470945	207.840816831137	1896.74411799074	843.543728749137	165	1397.61966494692	1759.28288967682	223.202962588463	2700.65954590589	1086.0853012475	222.881540282327	1956.36549927338	1395.20481147636	147	2026.2193600848	996.948527152749	210.946025800018	2229.18146527551	1446.08881119206	135.511948124375	2835.52903102718	925.080947275681	151	2187.44044490145	1088.49203394022	155.613030335531	2079.4145296528
834.712102018512	159.88074007835	1475.68882059862	1272.18515433709	261.370295555091	1920.22384349162	941.854081404146	198.040179276815	1756.7533511616	1346.53279228022	160.288782767604	1992.8286062304	1002.7917888206	187.107857852454	1921.65672265227	1134.73141578669	149	1825.53456728504	899.089990485209	151.04072345119	1821.07724864321	1166.88039281352	207.862323399243	1897.81193198971	844.638828456776	165.001327222897	1400.33038679097	1760.65486016402	223.258785202002	2703.93987658433	1086.42988573823	222.886102621199	1957.60356370072	1396.02344474535	147	2028.71968231365	997.17002799632	210.98089374797	2230.39307731059	1446.45825122137	135.558532023919	2837.03819280182	925.168649022046	151	2188.45135407903	1088.66252929016	155.642262921004	2080.23147074606
835.001597946178	159.888819118193	1476.25074295849	1272.3682027414	261.345277023617	1919.8163877943	941.869369901763	198.076252475754	1756.87355728741	1347.0687439933	160.269469639574	1993.0717676898	1002.52394048524	187.16128787806	1921.82726918989	1134.68540766961	149	1825.76205168897	899.415255867495	151.062484149013	1823.42264566652	1167.11879284424	207.887167986235	1899.13361898331	845.786928303121	165.004650252251	1403.28191145628	1762.10929309696	223.306595855269	2707.6017581534	1086.79266517581	222.898917788843	1958.97384308155	1396.99747453816	147	2031.6846201256	997.421754881372	211.021760697823	2231.60521411586	1446.94623709086	135.608903577807	2838.59325057428	925.304605231142	151	2189.44731723493	1088.78570126166	155.674710756174	2080.79986330136
835.273550390928	159.885042597189	1476.75611751104	1272.56629957165	261.307923078166	1919.43863707006	941.867041972142	198.126986822159	1756.93928152515	1347.73504534553	160.2543937487	1993.59183116354	1002.37054310272	187.22366516216	1922.11471273755	1134.80982741533	149	1826.12830879394	899.840406964495	151.088381149336	1825.87272245119	1167.47846096855	207.912946073561	1900.53847154282	846.942953662778	165.013077025505	1406.36919569516	1763.55924451805	223.340626771366	2711.43950807123	1087.15122208392	222.917596325812	1960.42090581992	1398.04261260734	147.001327222897	2034.86794652466	997.694198534109	211.06460192738	2232.75521673867	1447.4801209877	135.654967457594	2839.99403493141	925.46745672369	151	2190.31556784807	1088.83833869397	155.707440711392	2081.0589437015
835.519670631008	159.870037881899	1477.16070409847	1272.77101665254	261.258785202002	1919.05394164277	941.8646181385	198.190261526642	1756.92012937169	1348.47490575945	160.246340485446	1994.24810483221	1002.34487870537	187.292559288608	1922.44891673047	1135.08558649218	149	1826.50136391067	900.366523644816	151.117482266016	1828.28244025841	1167.94095141218	207.937515850987	1901.86827184199	848.055412620148	165.028429474207	1409.48440338845	1764.91304879652	223.357218529586	2715.26512771497	1087.48213093908	222.938843073884	1961.90395515007	1399.0661892657	147.004650252251	2038.04364769002	997.977786565574	211.105732463407	2233.81071530197	1447.9995095886	135.690071466871	2841.10947472045	925.638098635568	151	2190.98720145386	1088.81361684637	155.73895713368	2081.00707351129
835.74959267754	159.846444535045	1477.45883078592	1272.99295511765	261.202962588463	1918.65249732899	941.896655010083	198.26104286632	1756.82516402993	1349.25429553025	160.244207230313	1994.92455156903	1002.45005156726	187.363994170883	1922.79418958947	1135.47930889806	149	1826.7849228652	900.993673000996	151.149426403365	1830.55662917513	1168.47759885585	207.957949325913	1903.00332407365	849.074998452541	165.052473253798	1412.5255249935	1766.08954272479	223.355484221852	2718.92701740754	1087.76434641469	222.95927654881	1963.39528426199	1399.98026419464	147.011749802608	2041.02667289537	998.266817677142	211.144776151114	2234.78278699571	1448.46794559301	135.709607521414	2841.90958119043	925.805085142247	151	2191.45499465797	1088.72436855538	155.766731027463	2080.7132499005
835.981902557995	159.820295442833	1477.69004558394	1273.25187397951	261.146906347334	1918.26129440007	941.999991620863	198.33291228871	1756.70541969412	1350.0552544054	160.248142219034	1995.55714746041	1002.68084381255	187.434368425724	1923.14284758353	1135.94847355292	149	1826.9201721018	901.717985824254	151.182962390819	1832.64383865332	1169.05604572316	207.971570525793	1903.87087521242	849.960008925221	165.084936148072	1415.40274545382	1767.02686963339	223.33729344219	2722.3156436556	1087.97908888407	222.976220778044	1964.87350416022	1400.71072988846	147.023779221956	2043.68695591921	998.554109901264	211.182962390819	2235.70496460306	1448.87314008768	135.713502955415	2842.44685986549	925.960590327382	151	2191.75483076937	1088.59739432265	155.79105993639	2080.29154992998
836.23706743169	159.797809385242	1477.91225151068	1273.567159162	261.09668595068	1917.9265041212	942.2034789036	198.397941980776	1756.6300837095	1350.87182758901	160.255158866772	1996.12422142273	1003.01952903214	187.50112890113	1923.50802657376	1136.44437048069	149	1826.87999606815	902.524192521218	151.217104979004	1834.53282236772	1169.64146726609	207.976500394784	1904.44996715017	850.681155788475	165.123127125378	1418.03744735994	1767.69404339452	223.306613010723	2725.3514813002	1088.11415825413	222.988250197392	1966.30799025895	1401.20636212787	147.04072345119	2045.93810598513	998.830308282774	211.220428008357	2236.61466189873	1449.22046109064	135.701012803507	2842.81898828793	926.099721212174	151	2191.94376990437	1088.46527230517	155.809850145445	2079.87173337214
836.527586489844	159.783693187146	1478.17599504599	1273.94797756239	261.055796283152	1917.69041230503	942.516307641127	198.44813485258	1756.66286155688	1351.6985498717	160.261680516295	1996.6277568633	1003.43656856003	187.563099100392	1923.89709967921	1136.91621410233	149	1826.65873279812	903.383936028457	151.249293063712	1836.22986919836	1170.20058231014	207.971570525793	1904.75536751582	851.228158632434	165.16356636017	1420.36808768835	1768.10023639942	223.268422033417	2727.98419292717	1088.16899920253	222.995349747749	1967.66012896184	1401.45263116989	147.061156926116	2047.73088457299	999.082393778347	211.256392614069	2237.53248298555	1449.52332307805	135.674448898312	2843.12598555353	926.218930545015	151	2192.07232432069	1088.35801653704	155.82090481291	2079.5600157163
836.847831489841	159.779042934895	1478.49499536484	1274.37898414902	261.025106444853	1917.56826193305	942.920550737095	198.476999907935	1756.83506434282	1352.51707537667	160.263347540875	1997.07001642234	1003.89076812902	187.620386784953	1924.29593187154	1137.31796550471	149	1826.26282194388	904.254612566902	151.278966585038	1837.73886652481	1170.70425818568	207.956622103016	1904.82578349276	851.607413606731	165.20095130524	1422.34076729988	1768.2913845047	223.227527558715	2730.17336609502	1088.15503054896	222.998672777103	1968.87185615647	1401.47223676205	147.082403674188	2049.03898336228	999.297224371647	211.289668781489	2238.44202809428	1449.80012496221	135.637524755375	2843.4317733267	926.319080444955	151	2192.16308174356	1088.29924308815	155.8243288629	2079.41018737268
837.171372753319	159.78273655328	1478.82150174082	1274.820379239	261.001327222897	1917.51957474037	943.371720891897	198.480869149491	1757.12034687564	1353.29466193001	160.257457979105	1997.42238288885	1004.33502735713	187.673925403786	1924.65466553694	1137.61611348299	149	1825.69878072424	905.084740742506	151.30456599028	1839.04903181701	1171.13300361003	207.934192821633	1904.70324740435	851.841545456894	165.231291731438	1423.91388239083	1768.34347524475	223.18761264307	2731.89438700834	1088.09386338866	223	1969.87685305365	1401.32058742733	147.101082211157	2049.86259446403	999.464674556177	211.316859967263	2239.29232474113	1450.07040700445	135.594063748257	2843.74764906293	926.404925121445	151	2192.20513217731	1088.30308011688	155.818706362074	2079.41251283318
837.453637039383	159.789416670519	1479.05246949863	1275.2104772636	260.979543807398	1917.45139828293	943.808596093407	198.459622401418	1757.4413916277	1353.98822846549	160.242887873503	1997.6348700281	1004.72084830922	187.723487520242	1924.88372062843	1137.79294685442	149	1824.96921790009	905.820129436297	151.325553801461	1840.12190460635	1171.47700674277	207.905846523204	1904.4199379352	851.960752754654	165.251573979557	1425.05836837481	1768.34731423595	223.150753626262	2733.13836340959	1088.0128275855	223	1970.60753573064	1401.07746274852	147.113897378801	2050.22584984848	999.576477541619	211.33423747378	2240.00567196339	1450.34785769827	135.549732913373	2844.03956576149	926.483586329231	151	2192.1619228091	1088.37042710321	155.80543595452	2079.50577414262
837.639596178843	159.792364441611	1479.03886596535	1275.47960409928	260.954626296559	1917.21739053119	944.163899482719	198.416641147968	1757.67166103565	1354.55034231935	160.218753052048	1997.624571152	1005.00354559192	187.767704954726	1924.87178019549	1137.84927582658	149	1824.08324663737	906.410297060567	151.341072466502	1840.9011995032	1171.73586856692	207.87381134399	1903.99728539504	851.996979080285	165.26026538002	1425.76301780903	1768.38646134924	223.117482266015	2733.92736337443	1087.93530649691	223	1971.01172669392	1400.82758078807	147.118459717673	2050.1856877693	999.629390280046	211.338539992618	2240.5092934502	1450.645109055	135.509151092856	2844.26558055199	926.564780393918	151	2192.00334411438	1088.4963656213	155.785287608929	2079.61403000693
837.674094259184	159.785959251402	1478.61974722622	1275.55539306025	260.919788573231	1916.64572706584	944.375464829887	198.358016695736	1757.66808229442	1354.93037186061	160.18538897125	1997.29351130405	1005.14275534087	187.802545447401	1924.50674735444	1137.79164844254	149	1823.04615088266	906.811840402924	151.349856517944	1841.3269651061	1171.91209716695	207.840728917759	1903.44604012725	851.981014406179	165.257457979105	1426.04717656565	1768.5321575795	223.088381149336	2734.32903142809	1087.8795640686	223	1971.06988950431	1400.65361390352	147.113897378801	2049.84708376271	999.62415547408	211.327811603722	2240.74159634568	1450.97114646246	135.477175955888	2844.38424569846	926.659282817333	151	2191.70823589437	1088.67123776763	155.760443021937	2079.65990655375
837.508777614801	159.767132616112	1477.64715973582	1275.37397191826	260.870112350952	1915.55293878705	944.394880236	198.292559288608	1757.29244556596	1355.07771027655	160.142871027382	1996.53481171968	1005.10858536578	187.823209487464	1923.69867166775	1137.6247865379	148.998672777103	1821.8467306416	906.997332922208	151.350375274869	1841.36524954569	1172.00707072193	207.808633553603	1902.76832291975	851.934615024098	165.244642811461	1425.95661420025	1768.81621245901	223.062484149013	2734.43852749837	1087.84900189253	223	1970.79405345779	1400.60882741763	147.101082211157	2049.33855902857	999.566212648439	211.303360739293	2240.69647004042	1451.33608013938	135.457170196022	2844.417026114	926.778934011402	151	2191.3116369285	1088.88413056243	155.734633934993	2079.61230268773
837.114260221477	159.73561138665	1476.0229807264	1274.88331359554	260.798960560186	1913.777480839	944.194674944841	198.228315414411	1756.44911270601	1354.94655307183	160.090659631445	1995.25409074069	1004.88192006405	187.824943795199	1922.40437687655	1137.34231670075	148.994022524852	1820.45085007479	906.964290321287	151.34118887619	1841.03533323867	1172.01721938687	207.779919725055	1901.96147929201	851.871162460418	165.224209336535	1425.57035351685	1769.23323926304	223.04072345119	2734.3729859632	1087.83549289859	223	1970.23846658753	1400.71306537182	147.082403674188	2048.79780088055	999.4636074221	211.269325016022	2240.42676738841	1451.74320013347	135.451760387921	2844.45195915674	926.931420418306	151	2190.89928144692	1089.1242696144	155.712113681318	2079.49438209002
836.485194058007	159.694084069147	1473.70658533955	1274.05251020523	260.699882021573	1911.18826797633	943.771894399187	198.173037680668	1755.09017809635	1354.51062922238	160.028323580754	1993.37605056823	1004.4595247851	187.807205999474	1920.62947379426	1136.9221482067	148.982272722244	1818.78594160255	906.736511126042	151.321422306136	1840.41087731406	1171.93207594694	207.757112126497	1901.01175789652	851.800884690465	165.198833526873	1424.98797569509	1769.74955999116	223.023779221956	2734.24179813782	1087.82731862425	223	1969.48530867986	1400.95360987308	147.061156926116	2048.33445447973	999.325001138509	211.233505033862	2240.03623857703	1452.1841690597	135.461574067178	2844.62615709382	927.117839017371	151	2190.59363110549	1089.37704437338	155.697966483604	2079.37475059778
835.641755009316	159.649362471361	1470.72351897198	1272.87237460266	260.567542305071	1907.70036516181	943.145607125129	198.13163707441	1753.21993333538	1353.76405650763	159.957949325913	1990.86339670173	1003.85744870197	187.773665274419	1918.42438286966	1136.33873275276	148.958493500288	1816.74436361854	906.367306810041	151.292297430747	1839.61655901316	1171.74162817452	207.742542020895	1899.89505773439	851.732574028878	165.170932971471	1424.32842207379	1770.31388409445	223.011749802608	2734.1439870212	1087.81391767906	223	1968.64395962533	1401.29206543172	147.04072345119	2048.01913055842	999.159610108929	211.205764161118	2239.66276886524	1452.64419373886	135.484816621707	2845.09253618869	927.334080905948	151	2190.52839990837	1089.62866259744	155.696727174085	2079.35074804706
834.623719225161	159.607682248363	1467.15800404233	1271.35214778597	260.396788481166	1903.28570892012	942.348850011274	198.10788057013	1750.88121915253	1352.72049527992	159.880762796026	1987.72100084823	1003.10636178531	187.730250743686	1915.86636924709	1135.56461602886	148.917770049098	1814.20568337906	905.926296308414	151.255070953394	1838.79220103234	1171.43725554988	207.736652459125	1898.57483284378	851.677381149601	165.142326853007	1423.71350502692	1770.87436655785	223.004650252251	2734.15563446862	1087.79158528201	223	1967.83395092607	1401.67948561988	147.023779221956	2047.87041158366	998.976485277156	211.195512397404	2239.43698143093	1453.10038690403	135.519218698245	2845.9673695649	927.56917313	151	2190.80649904175	1089.86605123405	155.711048316283	2079.51735474139
833.48016813542	159.575100856948	1463.12307328808	1269.51718667926	260.183545898717	1897.96508233266	941.419426556137	198.101336202931	1748.12813332494	1351.40245045907	159.798786836899	1983.97120953364	1002.2463253377	187.684889458099	1913.03232879272	1134.57664652601	148.856613122982	1811.04493332095	905.483867612202	151.212701107848	1838.05091298799	1171.0128259109	207.738319483705	1897.00276679368	851.654361383643	165.114159236662	1423.25678075698	1771.4021492948	223.001327222897	2734.33411194671	1087.76946466475	223	1967.1708408423	1402.08010834524	147.011749802608	2047.86945768691	998.784135356987	211.209194055385	2239.44012586115	1453.53105887509	135.557990549318	2847.26878350468	927.811069801587	151	2191.45667994378	1090.08215378775	155.73973461998	2079.9259622694
832.256449804889	159.556160821257	1458.734280615	1267.40092853303	259.925559000807	1891.79941339677	940.387541456355	198.110553531655	1745.00659453806	1349.82672077652	159.714540261749	1979.63132721943	1001.31097137157	187.64551038526	1909.9678526345	1133.34516599131	148.774209448794	1807.1408698747	905.091113592137	151.16821661242	1837.44442645007	1170.45679019887	207.743513910331	1895.10794278151	851.682806682705	165.087053926439	1423.05454418489	1771.88739844757	222.998672777103	2734.73027652528	1087.76388679633	223	1966.76104027539	1402.47057468286	147.004650252251	2047.98912851336	998.596082395169	211.247385032691	2239.6972231579	1453.92895065489	135.594852625039	2848.9226376949	928.053976051074	151	2192.43765976776	1090.28191069463	155.779919725055	2080.57630203813
830.98910445661	159.551175574497	1454.0816980845	1265.04218837032	259.622325040598	1884.87468381087	939.277269315034	198.132166131157	1741.5389843834	1348.00401285436	159.628906278759	1974.68747524251	1000.32119779276	187.615562054368	1906.67875990758	1131.83658471601	148.673127237637	1802.38658247444	904.771107745755	151.125781571172	1836.95354614206	1169.75163890168	207.745880305819	1892.80572508151	851.781506975522	165.062484149013	1423.17263547564	1772.33628030291	222.994022524852	2735.38094730579	1087.79530189869	223	1966.68795918108	1402.8420881321	147.001327222897	2048.20979114792	998.433209809865	211.306605503775	2240.17276114801	1454.30560224873	135.622431639473	2850.76734622773	928.301738642281	151	2193.64316694716	1090.4823108789	155.826011060119	2081.41186878838
829.702023933805	159.558252407179	1449.2302487077	1262.48972551294	259.274983016463	1877.30475144424	938.107967830438	198.160598305138	1737.74001705979	1345.94633797285	159.543179575217	1969.10913648913	999.281423746182	187.596080544076	1903.13207893227	1130.01439337773	148.559229858837	1796.69289851066	904.518767566372	151.09091362322	1836.49895249288	1168.8743789194	207.738065491931	1890.00223027982	851.957107908497	165.04072345119	1423.64151903383	1772.75881700508	222.982272722244	2736.30745342596	1087.88271856802	223	1967.00954286978	1403.1876150405	147	2048.5258543972	998.321128952014	211.37828599215	2240.8066359963	1454.68585929993	135.63520562514	2852.62509695757	928.567047327656	151	2194.94944456099	1090.7077853211	155.872222622371	2082.35036104845
828.411577399977	159.5740618223	1444.22455490849	1259.79984929463	258.888013351995	1869.22594230046	936.900173449977	198.191366446397	1733.62777800772	1343.67887771332	159.45814764768	1962.87439802897	998.182023987652	187.583009080793	1899.27111977759	1127.84581637949	148.440770141163	1790.00435777883	904.309018647072	151.070200531554	1835.96579382752	1167.79922036	207.713480237739	1886.61061321277	852.203330152209	165.023779221956	1424.44175251928	1773.15293874635	222.958493500288	2737.48271123566	1088.03690220601	223	1967.73749400334	1403.49014825772	147	2048.92279570967	998.290011145052	211.451719739795	2241.52678057239	1455.1055729422	135.630643286268	2854.33060186782	928.868958288666	151	2196.2365085139	1090.98400360486	155.912409406134	2083.29984722538
827.130017600507	159.594180982566	1439.12120566286	1257.04166186862	258.468595852356	1860.82035652523	935.678090675197	198.220080274945	1729.2546464586	1341.2522640601	159.375743973491	1956.03032404142	997.011691712189	187.570290088522	1895.04963306865	1125.32677409212	148.326872762363	1782.32519860716	904.109276766725	151.068608751022	1835.23630142465	1166.51482832331	207.668026552649	1882.57863175707	852.497626586268	165.011749802608	1425.5043956933	1773.50056082801	222.917770049098	2738.82105964231	1088.2568226538	223	1968.8308312158	1403.71776341767	147	2049.3593875935	998.36074138557	211.514921520432	2242.2767560186	1455.58844314029	135.608289248932	2855.77426435169	929.219801151726	151	2197.41613803004	1091.32503035492	155.941549271054	2084.18866833345
825.866373939654	159.614069508122	1433.98995550947	1254.28949437178	258.025516229465	1852.30144885783	934.467982933405	198.242887873503	1724.70460096154	1338.73441632895	159.297209540859	1948.70165443587	995.761501624003	187.550000112259	1890.45551652791	1122.48861241305	148.225790551206	1773.74976621819	903.883797141805	151.089329501259	1834.21657830674	1165.02744168634	207.600220508913	1877.9169881508	852.80483117042	165.004650252251	1426.71044417508	1773.77009985359	222.856613122982	2740.17073526081	1088.53131769654	223	1970.18633715019	1403.82919582239	147	2049.74563341459	998.541173538531	211.557648644165	2243.01112525017	1456.13939334968	135.570196612923	2856.89076226443	929.620573399667	151	2198.42684275433	1091.73205962518	155.953843248037	2084.96640181017
824.621126930276	159.631788854149	1428.92194977348	1251.61003980399	257.570979661445	1843.90950414618	933.285932684688	198.257457979105	1720.09184007374	1336.18755500091	159.224992385057	1941.09099990083	994.42728412465	187.515973933763	1885.5204528725	1119.39909635602	148.143386877018	1764.46583186526	903.597688177316	151.130309851513	1832.84497986479	1163.36512198481	207.513856155396	1872.70485794751	853.083314615542	165.001327222897	1427.90645986384	1773.92028879526	222.774209448794	2741.33169052139	1088.8352601271	223	1971.64647148011	1403.77969955319	147	2049.94899294632	998.814513685032	211.574847003116	2243.68524025549	1456.72975961761	135.521670969284	2857.64249351361	930.052313400471	151	2199.21953452641	1092.18350004214	155.94674369768	2085.59489587296
823.384104189522	159.644956562379	1423.99426764402	1249.05120969337	257.11813784644	1835.86293721009	932.133401171865	198.262020317978	1715.52337211808	1333.65158143408	159.16128787806	1933.41385804756	993.011101374454	187.465599876566	1880.31930136915	1116.15277224306	148.082229950902	1754.74563238596	903.218397885354	151.185611274391	1831.10329164207	1161.57102253453	207.41566369631	1867.09152915494	853.289076655578	165	1428.91674745568	1773.91553236591	222.673127237637	2742.0753727509	1089.13846044917	223	1973.01022023785	1403.53791840151	147	2049.80433507436	999.141616407282	211.564053834374	2244.24484987117	1457.30077380663	135.466579228108	2857.9921206585	930.476867191474	151	2199.74179899908	1092.63963768129	155.919097271995	2086.03621688393
822.134144694492	159.651447212282	1419.24645909346	1246.63969701774	256.680514508035	1828.32310216352	930.997627105942	198.255703041147	1711.07683849329	1331.13852526366	159.107857852454	1925.84927187779	991.517186019581	187.400590864349	1874.94903111187	1112.85155936891	148.041506499712	1744.90253471678	902.719638674985	151.244642811461	1829.01140848836	1159.69557286442	207.315122959755	1861.26549853764	853.382371843735	165	1429.57306691474	1773.72914302748	222.559229858837	2742.19750349123	1089.40770947003	223	1974.07346308303	1403.08948332765	147	2049.15978512156	999.464508428155	211.529473161733	2244.62620863685	1457.76912209598	135.411796492582	2857.89506190094	930.840729044631	151	2199.93477736678	1093.04612350971	155.873013177841	2086.24467792804
820.845220681492	159.649012700122	1414.66373276506	1244.38093204908	256.274601748963	1821.36977260817	929.855674685604	198.238758811913	1706.78262290774	1328.64040703561	159.065829896043	1918.50830341428	989.954405001795	187.326522991124	1869.51002163414	1109.59582312015	148.017727277756	1735.253860526	902.086528160161	151.297383264146	1826.62085752357	1157.79051904005	207.221140298956	1855.42750602844	853.331007374781	165	1429.73381045573	1773.34724712988	222.440770141163	2741.54900519149	1089.61378694961	223	1974.65572871091	1402.44009239032	147	2047.90231561996	999.719686330299	211.478315789976	2244.75278641385	1458.0459651737	135.363016719226	2857.29303665207	931.087501162883	151	2199.72899572554	1093.34514825911	155.815715948505	2086.16222044471
819.4942562318	159.635656057877	1410.18071371008	1242.27024059429	255.914734335804	1814.99718894865	928.685559585965	198.21261319447	1702.61938317806	1326.14713049886	159.035529024564	1911.42872828637	988.337972144271	187.251306780671	1864.09007951421	1106.47775064935	148.005977475148	1726.082226904	901.319835825881	151.33343930763	1824.003364144	1155.90534708505	207.142059654121	1849.76023965981	853.114706390187	165	1429.30171191174	1772.77518596993	222.326872762363	2740.0624103918	1089.73632898106	223	1974.62805993101	1401.61532377974	147	2045.98839805106	999.847003839485	211.418921529962	2244.54535720118	1458.05126749788	135.323816793953	2856.12680369657	931.164037530035	151	2199.0541782814	1093.4831194408	155.754029965642	2085.72907262349
818.069015993654	159.610723761092	1405.70807216539	1240.29793879518	255.614787598155	1809.14403122272	927.472574509054	198.179704557167	1698.53852544359	1323.66067798949	159.016400054859	1904.61234636929	986.691127138558	187.181984939161	1858.75206744926	1103.57866030574	148.001327222897	1717.60733185982	900.43733700832	151.346254475274	1821.2270736745	1154.08752938635	207.082229950902	1844.4073882553	852.725048287426	165	1428.23639504097	1772.03109661901	222.225790551206	2737.76129133324	1089.7609473591	223	1973.92781731607	1400.65443857029	147	2043.44526244231	999.804077396325	211.358794182036	2243.92897902133	1457.73843998273	135.29684670045	2854.35295309365	931.036187356656	151	2197.85296042018	1093.426093955	155.697966483604	2084.89854591986
816.573053332353	159.573377056551	1401.16789708385	1238.46190084617	255.385261174071	1803.73209541393	926.213180356972	198.143132885243	1694.48630498801	1321.20088878878	159.005977475148	1898.05536215719	985.045559862675	187.1239101739	1853.53838984873	1100.97062770793	148	1709.97893337108	899.46661932641	151.33343930763	1818.34479984183	1152.38424788175	207.041506499712	1839.4683292904	852.168330977673	165	1426.55694181271	1771.1419059976	222.143386877018	2734.75112958381	1089.67998340685	223	1972.56161717916	1399.59805281975	147	2040.36451629657	999.571459774395	211.303093540407	2242.85062008789	1457.1013694019	135.281332842584	2851.96219212287	930.692642844693	151	2196.09976008736	1093.16597152165	155.653483666865	2083.65526295247
815.028521872808	159.525605958004	1396.52671093751	1236.76956114735	255.229577678819	1798.70319761643	924.918224636793	198.106182896144	1690.4325311854	1318.80468798691	159.001327222897	1891.77881432028	983.437948515934	187.078884203872	1848.48187544268	1098.71190655192	148	1703.27199742683	898.438422448976	151.297383264146	1815.3819574125	1150.84069433764	207.017727277756	1835.00101204073	851.466170591455	165	1424.34381043458	1770.14235075227	222.083557173799	2731.20490427393	1089.48861702829	223	1970.60203939513	1398.48722193962	147	2036.88212532682	999.155525354803	211.253966033639	2241.27958337482	1456.17760793902	135.274399508565	2848.97007836729	930.149547879656	151	2193.8001304178	1092.72449786894	155.625316050519	2082.01221542001
813.470894805994	159.470936622879	1391.81097590867	1235.2380223555	255.145317862929	1794.03796652756	923.608879519801	198.072906728724	1686.38850365827	1316.51080392971	159	1885.82687744519	981.906195797801	187.046700926337	1843.61877834951	1096.84185647128	148	1697.50228194137	897.380451678255	151.244642811461	1812.34921623752	1149.49562849273	207.005977475148	1831.03448131707	850.656173497839	165	1421.72642076042	1769.07113517848	222.047483974859	2727.32453035141	1089.18881040052	223.001327222897	1968.17069524411	1397.3548151288	147	2033.14552492257	998.587452264671	211.211910552378	2239.23571096567	1455.04020310739	135.27053500461	2845.44502848289	929.448541916617	151	2191.01756538776	1092.14623128679	155.614087438572	2080.02822876231
811.94735312762	159.413149202502	1387.11283480047	1233.89282220854	255.12254361748	1789.76256841091	922.319497362307	198.045373703441	1682.41582359045	1314.35537652975	159	1880.26184063882	980.486224340575	187.025106444853	1839.00995129497	1095.37865595235	148	1692.64959550228	896.319406793997	151.184284051495	1809.26642243567	1148.38182409961	207.001327222897	1827.58738762879	849.785884782349	165	1418.87841857861	1767.96760924926	222.035454555511	2723.33650940914	1088.7871987437	223.004650252251	1965.43694373672	1396.22683070453	147	2029.31137629827	997.9181640377	211.175583223722	2236.79019336503	1453.78361645907	135.266242855167	2841.49419888687	928.649197829907	151	2187.86690688013	1091.49253457913	155.617680587782	2077.7947628557
810.510126236283	159.355471152682	1382.57061203522	1232.76219207616	255.144714099915	1785.93319327301	921.09373783152	198.025106444853	1678.61832887811	1312.36624845004	159	1875.14188965597	979.210913515501	187.011749802608	1834.74052843554	1094.31380231089	148	1688.67240564062	895.281433559993	151.125659599262	1806.17864539679	1147.51834494749	207	1824.67447616449	848.91207989001	165.001327222897	1415.99680088404	1766.87648195861	222.047483974859	2719.46916262895	1088.30275493845	223.013077025505	1962.60143847122	1395.13104856197	147	2025.53714723285	997.210093563221	211.143654075904	2234.06930983776	1452.50817428718	135.257551454705	2837.26869226144	927.822579724377	151	2184.51334954939	1090.82765421692	155.630902840264	2075.42840810603
809.210162965671	159.30176631751	1378.34921314076	1231.87314973657	255.194108805569	1782.62035737794	919.981301328427	198.011749802608	1675.13262019202	1310.56166428133	159	1870.51506810343	978.108055470124	187.004650252251	1830.92309977869	1093.61845325762	148	1685.53312012172	894.298138340801	151.077579698651	1803.18368269857	1146.9122406266	207.001327222897	1822.31952802656	848.092876837371	165.004650252251	1413.28229926627	1765.84784853386	222.083557173799	2715.94436081917	1087.76756108622	223.029756697104	1959.88084972888	1394.10270513225	147	2021.9867579457	996.5325592811	211.115486459559	2231.24224497375	1451.31403016604	135.244368756943	2832.95588510286	927.043809570557	151	2181.15613519146	1090.21414767247	155.648826558982	2073.05893644079
808.094124023999	159.253966033639	1374.6147561155	1231.24651878564	255.252743627197	1779.89190932409	919.035487153913	198.004650252251	1672.1075992887	1308.9620567865	159.001327222897	1866.41600989405	977.200487479115	187.001327222897	1827.67332855386	1093.24478967002	148	1683.19518858361	893.4078688914	151.044829529066	1800.42201270726	1146.55689599488	207.004650252251	1820.54445675364	847.377470658109	165.011749802608	1410.91854559982	1764.92942473999	222.143386877018	2712.96732899813	1087.22330529773	223.057123506049	1957.49001506737	1393.18002230893	147	2018.83426656216	995.950678144525	211.093031401587	2228.50391968208	1450.28730040265	135.230708002343	2828.78306020928	926.380758507091	151	2178.01495310913	1089.69996933806	155.666289545141	2070.82136737913
807.201922248358	159.211910552378	1371.51084036659	1230.8986921877	255.308535241117	1777.80554769233	918.308452877915	198.001327222897	1669.68808830454	1307.59784316341	159.005977475148	1862.87953003559	976.507370176869	187.001327222897	1825.08673159563	1093.14234708443	148	1681.60948181103	892.656937255444	151.030804303261	1798.05802609653	1146.43954447437	207.013077025505	1819.3591974226	846.804304261841	165.023779221956	1409.04968873226	1764.16679876932	222.225790551206	2710.70950716833	1086.72035665805	223.09668595068	1955.61795287834	1392.40680848399	147	2016.24790851242	995.512486194653	211.080211426769	2226.04700092351	1449.48779108623	135.222017089115	2824.99863062427	925.881837346164	151	2175.2987175885	1089.31189745361	155.68042637346	2068.84497072475
806.56307544703	159.175583223722	1369.13993081204	1230.84127048315	255.357144060534	1776.39407298273	917.842852616071	198	1667.98806567733	1306.51665136219	159.017727277756	1859.94754134933	976.039935469014	187.004650252251	1823.21409740615	1093.26245237805	148	1680.70567942605	892.091267641055	151.034406949354	1796.24849300448	1146.54167244681	207.028429474207	1818.74658866732	846.392213034892	165.04072345119	1407.76050955121	1763.58841500522	222.326872762363	2709.26951708608	1086.30507097388	223.146906347334	1954.39215352114	1391.81138400576	147	2014.35384970271	995.246214458289	211.082229950902	2224.0422823427	1448.94958936482	135.225790551206	2821.85878754212	925.573087220652	151	2173.18802191146	1089.0561522799	155.691302514394	2067.25067169199
806.194553658653	159.143654075904	1367.55120350782	1231.07767310719	255.402968196711	1775.66690733784	917.666209427763	198	1667.07298991974	1305.77744890805	159.040179276815	1857.68271897785	975.804210144194	187.011749802608	1822.04665816971	1093.57606798877	148	1680.38490126193	891.751942097507	151.053800476695	1795.10383737197	1146.84729456155	207.053800476695	1818.65696967608	846.144755261462	165.061156926116	1407.06634113612	1763.20653663044	222.440770141163	2708.65212967448	1086.01691194371	223.202962588463	1953.8614511944	1391.40518012725	147	2013.1995523808	995.151715192807	211.106009172858	2222.60603510367	1448.66796259846	135.249569773162	2819.57591972635	925.448924733666	151	2171.79765361889	1088.9151012625	155.701573867298	2066.13201367954
806.096475694255	159.114159236662	1366.74132307981	1231.60410618216	255.456379640553	1775.61237583637	917.784967195023	198	1666.9476957819	1305.43653055308	159.076252475754	1856.16696925393	975.80066682336	187.025106444853	1821.52696144029	1094.0790823296	148.001327222897	1680.53757229339	891.668008423534	151.084936148072	1794.67608808367	1147.34598711006	207.089586400323	1819.01845321293	846.048121817206	165.082403674188	1406.9084953751	1763.01079065507	222.559229858837	2708.74409926376	1085.87861441083	223.257457979105	1953.9745834782	1391.17268002111	147	2012.72193724069	995.202710082471	211.155136679626	2221.78453914026	1448.60334324206	135.295615119076	2818.27571168905	925.475246455759	151	2171.15474443384	1088.85287639391	155.715317797675	2065.54009330625
806.245805192093	159.088381149336	1366.64072201519	1232.3949076864	255.530902615746	1776.17950888854	918.173152455143	198	1667.53788782216	1305.51624452821	159.126986822159	1855.45768412891	976.017831430458	187.045373703441	1821.55670671863	1094.78241280335	148.004650252251	1681.06633199371	891.844275486385	151.123127125378	1794.9361424993	1148.02641093764	207.134876927986	1819.74580633821	846.075312578198	165.101082211157	1407.16252347418	1762.97062502117	222.673127237637	2709.32002833347	1085.89190471434	223.301945603018	1954.58545753955	1391.07807387827	147	2012.74268329189	995.3523551709	211.230440803457	2221.52875370325	1448.68777437456	135.362139929066	2817.93397196021	925.596462069982	151	2171.1714895707	1088.82310889019	155.735351428674	2065.45709717005
806.59199317701	159.067134401264	1367.11975130313	1233.40159884125	255.637599461642	1777.2794655772	918.772750902556	198	1668.69269733566	1305.98294269897	159.190261526642	1855.5541535942	976.430324831339	187.072906728724	1822.02528323974	1095.70097781077	148.011749802608	1681.91183459957	892.256979209191	151.162239137273	1795.78647865808	1148.87083439203	207.186018359229	1820.76019876322	846.190870851877	165.113897378801	1407.66057825796	1763.04501108961	222.774209448794	2710.09102558497	1086.0371380013	223.330204191655	1955.48053507809	1391.07879294389	147	2013.01871731455	995.539046427342	211.32819998526	2221.71079712575	1448.83408934575	135.442009450682	2818.37410082639	925.742276214691	151	2171.66139181348	1088.7733231977	155.762975495821	2065.79291382041
807.059590734605	159.052473253798	1367.99397667852	1234.54924098036	255.780190872284	1778.78060787654	919.49790472203	198	1670.20005640813	1306.7307600246	159.262370089217	1856.35573670313	976.996885266787	187.106182896144	1822.81840103692	1096.83011757923	148.023779221956	1683.0502075903	892.850581029916	151.196301052989	1797.06969548741	1149.84507181388	207.237024504179	1821.99115339679	846.353046876117	165.118459717673	1408.21797274585	1763.1888285052	222.855285900085	2710.76032746722	1086.27680576202	223.338089559881	1956.41925407527	1391.13864569686	147	2013.30265827007	995.702751355321	211.439442918267	2222.13552361144	1448.9612080965	135.52378874765	2819.27755515723	925.846057963852	151	2172.35991594066	1088.6614481522	155.795276911358	2066.38176910278
807.552424472661	159.047558443912	1369.03626357707	1235.74162063427	255.956582769493	1780.50768547158	920.243808044801	198	1671.8074770114	1307.5892309125	159.338889763857	1857.63523188365	977.661709181351	187.141805662347	1823.84065383848	1098.13211357328	148.042050674087	1684.48620615719	893.545770995645	151.220869151727	1798.60275620468	1150.8968559656	207.280698854946	1823.38180057805	846.518432994791	165.113897378801	1408.66976751738	1763.35659934572	222.913119796848	2711.10178655138	1086.56207703446	223.32651057327	1957.19122887132	1391.23235280006	147	2013.41871304302	995.792023929141	211.553252383689	2222.59051378106	1449.00245329608	135.595809396847	2820.26739316422	925.853354578543	151	2172.98783394916	1088.45533154002	155.827651892254	2067.02036104902
807.972042726914	159.052473253798	1370.00306762717	1236.87693799091	256.155403878512	1782.2609051432	920.906212830871	198	1673.2601511869	1308.35839551963	159.414342035635	1859.05893658622	978.35842072076	187.175054304917	1825.00289323701	1099.52658860172	148.065807178367	1686.21582985899	894.24791682245	151.232445009852	1800.19051429245	1151.95140543846	207.310198431789	1824.87211664689	846.646794635365	165.102409434054	1408.8868209224	1763.51374822412	222.94674369768	2710.98605973242	1086.84483374707	223.301242960926	1957.64127421625	1391.35371126961	147	2013.28564833342	995.77481750466	211.655399959881	2222.89059794976	1448.9225882243	135.647673059372	2820.99924337639	925.733311004948	151	2173.31307149628	1088.14240815599	155.852761036881	2067.51116049582
808.233454632594	159.065807178367	1370.67528863034	1237.86701191865	256.361589165097	1783.85068456496	921.398684183436	197.998672777103	1674.34427287305	1308.85682082855	159.484991100041	1860.25408268563	979.021402822383	187.200863391861	1826.22522239335	1100.90313409994	148.094153476797	1688.19814154555	894.864643203863	151.231291731438	1801.64952733106	1152.92683510187	207.320624139986	1826.3927716597	846.701160493044	165.087053926439	1408.79010705448	1763.6301267294	222.957166277391	2710.39734124254	1087.08260436277	223.269583039975	1957.69670417443	1391.49991831975	147	2012.9212232019	995.641035448983	211.732702949082	2222.90960137076	1448.71700543665	135.675405719747	2821.23347314082	925.479747570923	151	2173.19289909865	1087.72967267755	155.864340023492	2067.70501395279
808.285346727201	159.083730897085	1370.89255291386	1238.66024078317	256.56082428062	1785.13351623445	921.66801758396	197.995349747749	1674.91703232034	1308.97456331955	159.547480056228	1860.89492607579	979.595532984034	187.214979589957	1827.42730944644	1102.14844663677	148.124861433113	1690.33419647944	895.318506682298	151.220080274945	1802.82039027766	1153.74978767659	207.310198431789	1827.86058480007	846.653142643632	165.072906728724	1408.3499548558	1763.68042465402	222.948648821412	2709.41035214015	1087.2421360552	223.240246550985	1957.35928669523	1391.66014738162	147	2012.39343548629	995.403487565104	211.77438317208	2222.59833029574	1448.40918683078	135.676994441366	2820.87878997495	925.112143827306	151	2172.59414589313	1087.24132184069	155.857940345879	2067.52977052792
808.120560690137	159.101082211157	1370.58844810233	1239.2531735429	256.740007647126	1786.04849709076	921.702855629239	197.988250197392	1674.92995007971	1308.70390446582	159.600476804552	1860.79235801593	980.048075156473	187.214979589957	1828.52225259512	1103.17736922394	148.155948052887	1692.47238626555	895.559820196762	151.202962588463	1803.56843521567	1154.37583263536	207.280698854946	1829.17914849664	846.483426264004	165.064502673146	1407.56737228682	1763.64141864819	222.925766048379	2708.12389568305	1087.30307509654	223.219813076059	1956.67386059143	1391.80621617032	146.998672777103	2011.7512205792	995.084823494355	211.77438317208	2221.96848470353	1448.02757231623	135.656089532804	2819.96717013967	924.66045340805	151	2171.56900021104	1086.70720502957	155.832289726651	2066.98801507244
807.776676484978	159.113897378801	1369.80543923399	1239.69350894039	256.893990827142	1786.6378844492	921.534392403314	197.976220778044	1674.43776183991	1308.14350873949	159.644689501435	1859.95514288341	980.371894911822	187.200863391861	1829.42675390017	1103.9580080456	148.185594118937	1694.44625036132	895.573706463234	151.185611274391	1803.80144740647	1154.80073093953	207.238351727076	1830.26188190899	846.185581508712	165.064502673146	1406.46689689759	1763.49601089536	222.893817103855	2706.62913117991	1087.25677890335	223.210958587743	1955.71091150277	1391.89663689523	146.995349747749	2010.98505619497	994.714062181384	211.734030171979	2221.07116299658	1447.60112765503	135.619605774258	2818.6123421787	924.162137020592	151	2170.2234018054	1086.16021387194	155.791936726549	2066.14258198623
807.324085600108	159.118459717673	1368.67504285017	1240.06523251865	257.023952945243	1787.02578294024	921.222993878387	197.95927654881	1673.57110470787	1307.46580240822	159.682356984215	1858.57627066267	980.583094935543	187.175054304917	1830.06737514927	1104.52394543262	148.212701107848	1696.11266047651	895.377266905372	151.171990074511	1803.47348562712	1155.06607435645	207.19066861148	1831.04950463357	845.766934254464	165.074233951621	1405.09242965962	1763.24154988174	222.858194337653	2704.99585673069	1087.1090018207	223.211910552378	1954.5523876359	1391.88862307765	146.988250197392	2010.03189891538	994.316683119421	211.660050212132	2219.97387681634	1447.14506736502	135.574149030256	2816.94848287746	923.649533356932	151	2168.67482327016	1085.62576859066	155.742280163034	2065.08615038949
806.845949368818	159.1138973788	1367.38840261632	1240.46406370746	257.135828187199	1787.38421183916	920.845665803736	197.938843073884	1672.50812657636	1306.86610548422	159.716383162711	1856.98475238902	980.7205742755	187.141805662347	1830.40826170779	1104.96699112988	148.239020669775	1697.40767056219	895.023115537331	151.16663249046	1802.61009702142	1155.25068633578	207.147953953491	1831.53863351784	845.25140023547	165.09170417869	1403.4966070414	1762.89963210269	222.824945695083	2703.26337252012	1086.88088626616	223.21726344672	1953.27637289341	1391.76403495147	146.976220778044	2008.79881202051	993.912611784474	211.565002186297	2218.73520416177	1446.66534112364	135.526404124154	2815.07440400652	923.150152138288	151	2167.01741666676	1085.12305674261	155.693316231353	2063.90484961551
806.416371318901	159.101082211157	1366.15049745555	1240.96707909859	257.238229755166	1787.88235239852	920.476461365374	197.917596325812	1671.43994657424	1306.5017331247	159.749379713391	1855.5484005576	980.829906211673	187.106182896144	1830.45766563409	1105.40448859944	148.266781201282	1698.36666978788	894.583313585545	151.170756327214	1801.31572056681	1155.44584036161	207.119343097427	1831.78659056501	844.676786593905	165.114159236662	1401.74744649462	1762.52075616014	222.799136608139	2701.47064737573	1086.60859111243	223.222284288002	1951.96310303426	1391.54391357958	146.95927654881	2007.22535369165	993.516480559673	211.46454936312	2217.39414615164	1446.16575776864	135.481926869636	2813.03067086172	922.686301104441	151	2165.30640737561	1084.66483341267	155.653483666865	2062.65812999555
806.087078129897	159.082403674188	1365.13533215403	1241.61683485671	257.338272793732	1788.63652607307	920.175874626066	197.898917788843	1670.53071222555	1306.45961710867	159.782895020997	1854.57401693743	980.954319945451	187.072906728724	1830.283864097	1105.94844861555	148.299224298851	1699.12372403918	894.141855350122	151.184009996976	1799.77586632635	1155.73531579468	207.112251205641	1831.91174202794	844.087566697214	165.137676600757	1399.9263795928	1762.1744435403	222.785020410043	2699.68967960935	1086.33482846458	223.220957065105	1950.70142039182	1391.28858641077	146.938843073884	2005.34294278127	993.144411565495	211.3735736887	2215.97685771628	1445.6646589356	135.444992678353	2810.81322262126	922.279319917881	151	2163.56612205777	1084.26424708592	155.62996630277	2061.37465554708
805.8773488729	159.061156926116	1364.45647850102	1242.40735794701	257.439442918266	1789.68677358188	919.979229250206	197.8861026212	1669.89982078166	1306.73126970235	159.817037609181	1854.23724861762	981.127844576947	187.045373703441	1829.99876125796	1106.67392350434	148.339687930007	1699.86852128772	893.779150314131	151.203483779124	1798.22494567446	1156.17463656512	207.129765677138	1832.06371779914	843.527642699426	165.159183168863	1398.12502252874	1761.93534745267	222.785020410043	2698.03149771619	1086.09958290945	223.21261319447	1949.58198254642	1391.0849455415	146.917596325812	2003.29432135434	992.810285747394	211.303347532181	2214.50556354396	1445.19558355431	135.416446744832	2808.40581019129	921.948403728734	151	2161.80813062313	1083.93434239594	155.624510018283	2060.06282248435
805.780512384817	159.042050674087	1364.15572749081	1243.29769921446	257.54185235232	1790.99157949127	919.899779162099	197.881540282327	1669.60936423175	1307.23303232859	159.850573596635	1854.54606371037	981.367141533196	187.025106444853	1829.74756507784	1107.60007378647	148.389250046463	1700.79644305991	893.559373129622	151.225536559432	1796.91612225723	1156.78043289669	207.171733175448	1832.39565794671	843.033814971945	165.175054304917	1396.43776293486	1761.86571175375	222.799136608138	2696.64273421318	1085.93405569886	223.198833526873	1948.69513339213	1391.0211241612	146.898917788843	2001.31377664652	992.530537189097	211.262646798667	2213.02117157367	1444.81077506451	135.397680294486	2805.83537949119	921.712353917569	151	2160.06267301921	1083.69134669496	155.635482334591	2058.73913499593
805.770650378916	159.028429474207	1364.20414740557	1244.22366196886	257.641633533025	1792.44314849461	919.930902465248	197.8861026212	1669.6625809222	1307.83391609067	159.882517733984	1855.34936006672	981.67280688101	187.011749802608	1829.66294730487	1108.68540850103	148.446542468624	1702.03351193759	893.520094069604	151.244642811461	1796.06063973437	1157.52722179037	207.231392062669	1833.01267054368	842.628659334988	165.183485885345	1394.95357835289	1761.99416574955	222.824945695083	2695.67213053095	1085.8513274985	223.183856336433	1948.11618947317	1391.15360443996	146.8861026212	1999.66930966186	992.3182119314	211.252465087455	2211.5941961108	1444.56322603854	135.387340115557	2803.20228396839	921.582426821463	151	2158.39562073066	1083.54581771014	155.656553459492	2057.4468101427
805.814148795265	159.023499605216	1364.52449269508	1245.11842581694	257.734284163753	1793.90881675086	920.051789480311	197.898917788843	1670.0229166476	1308.39453322972	159.911618850664	1856.39576809088	982.035108870557	187.004650252251	1829.84421739235	1109.84405415427	148.506227548291	1703.59540358817	893.674265557557	151.258785202002	1795.79778893451	1158.36071998562	207.299508653192	1833.94966899135	842.320508457493	165.183485885345	1393.7408848447	1762.3081547926	222.858194337653	2695.22740141638	1085.84771595895	223.173317297408	1947.89060397265	1391.49092778482	146.881540282327	1998.58384803795	992.179791143897	211.269034058427	2210.32704615436	1444.49082256168	135.382689863306	2800.68792427659	921.55675752383	151	2156.91282716763	1083.49867724597	155.677777489888	2056.26570780564
805.878826104635	159.028429474207	1365.01349312071	1245.92783015371	257.81626012288	1795.25937198289	920.233325229938	197.917596325812	1670.62170425905	1308.80501766048	159.937515850987	1857.40092273165	982.43951396342	187.001327222897	1830.33421073804	1110.96729290119	148.559774033212	1705.37676930399	894.011048736163	151.266242855167	1796.17480010178	1159.21036878689	207.363102529134	1835.15629474739	842.105532529873	165.175054304917	1392.84346136368	1762.75778426069	222.893817103855	2695.34011362289	1085.90913648668	223.171710457772	1948.02744516821	1391.98547714275	146.8861026212	1998.17084810117	992.116655521525	211.303526817689	2209.35038709715	1444.60528430392	135.381280239627	2798.53654902197	921.621485088996	151	2155.74965366047	1083.53795748851	155.689962873644	2055.31020498761
805.944780276453	159.042050674087	1365.57281457664	1246.6257899206	257.886369820086	1796.40580724965	920.450300226904	197.938843073884	1671.38184081383	1309.01692895825	159.95927654881	1858.13258900542	982.8733260005	187	1831.11489696861	1111.9536716371	148.598626225072	1707.17789619409	894.506562259012	151.267974034416	1797.15304660412	1160.00677058233	207.411280642946	1836.5125028611	841.970476967694	165.16051039176	1392.26573625257	1763.26633773713	222.927093271276	2695.93071396063	1086.01598218685	223.183312162058	1948.48552074403	1392.54393414728	146.898917788843	1998.38194296984	992.12501743473	211.34541141338	2208.77897564267	1444.88523519932	135.379590497371	2796.97106708172	921.751196609887	151	2155.01973032047	1083.63860188521	155.687007374408	2054.68144901736
806.008910130417	159.061156926116	1366.14135388216	1247.220649846	257.948574352359	1797.33101871123	920.685715730869	197.95927654881	1672.24239872352	1309.05655742857	159.976220778044	1858.48713400991	983.335909634947	187	1832.13160628394	1112.74119634616	148.617056144919	1708.77608328154	895.135309548058	151.268147978899	1798.64153860993	1160.70313222816	207.435848741684	1837.87013524642	841.898654478876	165.142326853007	1391.98367918757	1763.7493749585	222.954626296559	2696.83647662801	1086.1528201449	223.20815674905	1949.19330762245	1393.05321865805	146.917596325812	1999.03600895807	992.198554961336	211.383196202378	2208.69218345844	1445.28048752294	135.374512530059	2796.14109602958	921.914054127188	151	2154.78604229623	1083.76469663065	155.665506496619	2054.44320881613
806.085237642704	159.082403674188	1366.71120427572	1247.75091230039	258.010627727398	1798.0958524024	920.934471598588	197.976220778044	1673.17053659295	1309.01626596834	159.988250197392	1858.52321701234	983.841053960073	187	1833.31609088254	1113.32954849862	148.614602039639	1710.00019801315	895.878522232543	151.270104230636	1800.52221286528	1161.28953271486	207.43463562461	1839.09832376819	841.875854746405	165.124581816373	1391.94839414631	1764.14506195437	222.974893555147	2697.84516234136	1086.31592367179	223.243839700195	1950.05925009046	1393.41820060489	146.938843073884	1999.86420082688	992.333369596979	211.410241470355	2209.09823201431	1445.73110907042	135.364973660368	2796.05805742674	922.082825609715	151	2155.02371264652	1083.88135845484	155.628551700346	2054.58342966631
806.200155004764	159.102409434054	1367.32652681611	1248.27911367769	258.083557173799	1798.8264439432	921.203034925221	197.988250197392	1674.15872790013	1309.02990199309	159.995349747749	1858.44694586523	984.410409543152	187	1834.61281023284	1113.78057243323	148.596701038596	1710.7974160107	896.718413946002	151.277196540084	1802.67211713242	1161.79265300053	207.412323511502	1840.12627623013	841.894753548688	165.110833148395	1392.10027143376	1764.4296470223	222.986922974495	2698.75675719866	1086.51287657325	223.285887453312	1950.9940882796	1393.58871288726	146.95927654881	2000.59517904846	992.522049657473	211.42435293085	2209.93798032704	1446.17462808123	135.351964751535	2796.60561239444	922.234738091173	151	2155.63344782205	1083.95593837379	155.583009080793	2055.02353677455
806.381433467926	159.118547631051	1368.07387155629	1248.87230468877	258.177588678685	1799.69882561008	921.500252275031	197.994022524852	1675.22170063555	1309.23024952702	159.998672777103	1858.56322936915	985.065184715613	187	1835.98848379262	1114.20325660046	148.574325408474	1711.25738364353	897.632053793157	151.290466947639	1804.96074665114	1162.26925070922	207.379613215047	1840.96203054457	841.955381418056	165.103207600203	1392.3785425143	1764.62834645605	222.990699495499	2699.42599093073	1086.75784606009	223.326618770588	1951.91654705308	1393.57648811375	146.976220778044	2001.01960719877	992.755534860168	211.426723925996	2211.08620369854	1446.56616631205	135.33923749727	2797.56047269457	922.359875675154	151	2156.45672289354	1083.97314363626	155.537818932253	2055.63190031424
806.647603836856	159.130209520281	1369.04282347021	1249.58635345594	258.30204302696	1800.88764557215	921.827724797053	197.994022524852	1676.3665782304	1309.71346242785	160	1859.1735211814	985.812471199505	187	1837.43499944487	1114.72107102232	148.5612353138	1711.59516545526	898.576627185174	151.309145484607	1807.24704556239	1162.78611094461	207.349324761422	1841.69094011159	842.066721709363	165.101880377306	1392.73473893192	1764.81073246278	222.986922974495	2699.80948336793	1087.06521232339	223.358540190262	1952.76853611984	1393.45463311626	146.988250197392	2001.0456041478	993.02034338019	211.423737998552	2212.37441575999	1446.886629427	135.332502504098	2798.65058139214	922.460158313798	151	2157.31620497773	1083.93637906213	155.502710115802	2056.26083938562
