Light	Light	Light	Light	Light	Light	Light	Light	Light	Light	Light	Light	Light	Light	Light	Light	Light	Light	Light	Light	Light	Light	Light	Light	Light	Light	Light	Light	Light	Light	Light	Light	Light	Light	Light	Light	Light	Light	Light	Light	Light	Light	Light	Light	Light	Light	Light	Light
Optode1-730nm	Optode1-Ambient	Optode1-850nm	Optode2-730nm	Optode2-Ambient	Optode2-850nm	Optode3-730nm	Optode3-Ambient	Optode3-850nm	Optode4-730nm	Optode4-Ambient	Optode4-850nm	Optode5-730nm	Optode5-Ambient	Optode5-850nm	Optode6-730nm	Optode6-Ambient	Optode6-850nm	Optode7-730nm	Optode7-Ambient	Optode7-850nm	Optode8-730nm	Optode8-Ambient	Optode8-850nm	Optode9-730nm	Optode9-Ambient	Optode9-850nm	Optode10-730nm	Optode10-Ambient	Optode10-850nm	Optode11-730nm	Optode11-Ambient	Optode11-850nm	Optode12-730nm	Optode12-Ambient	Optode12-850nm	Optode13-730nm	Optode13-Ambient	Optode13-850nm	Optode14-730nm	Optode14-Ambient	Optode14-850nm	Optode15-730nm	Optode15-Ambient	Optode15-850nm	Optode16-730nm	Optode16-Ambient	Optode16-850nm
365.200754627063	139.405936251743	806.909633895615	1711.93936737045	176.53545063688	2567.85004305512	1080.34522492015	138	2251.85369209205	1837.4552296432	147.313695405626	2680.75550078344	1705.85670853451	127	3796.02228069538	1551.25602929719	136.15462082999	2299.73186568468	834.447679267383	125	1761.81233904953	1428.87413565984	147.179883842676	2098.93558896048	1210.35121741948	138.471110567362	2371.42785248326	1881.02894173039	161.854495344615	2711.33803635271	1399.76518553633	137.011749802608	2553.68098918171	1301.36383900915	139.351323626792	1840.62193074051	916.130522443626	126.04072345119	2231.65176367209	1463.86539262876	128	2739.29912871949	309.277113967731	126	852.991180464574	2614.80798906336	134.388567007222	4108.00363778836
365.274193112309	139.462631821534	807.354524523831	1712.25221519177	176.620653983839	2570.55807093483	1080.60592579807	138	2253.46385436919	1837.27947572062	147.333527221008	2682.52636624037	1705.73709848882	127	3798.5453874075	1550.6408033162	136.179616643789	2302.62385087832	833.751697581451	125	1762.45445221807	1426.69086514178	147.203927622267	2099.13165668479	1207.43054482096	138.49858856116	2369.93404265088	1879.04642395597	161.896009351275	2710.11271620288	1398.66333415776	137.004650252251	2553.40337495174	1301.42586240397	139.380040930108	1841.64849357703	915.496017833018	126.025106444853	2231.09535688216	1462.94565163924	128	2738.15446051535	309.142777551783	126	852.32451459751	2614.13958802634	134.405674393882	4106.06729732047
365.282876784627	139.510082693305	807.400856927789	1711.87689998247	176.684623048471	2570.86520843688	1080.61945846746	138	2253.78566503126	1836.64567430771	147.334766530527	2682.91023968519	1704.64223105924	127	3797.81054602425	1548.9949276941	136.196301052989	2303.86811006047	832.563921904635	125	1761.71058514867	1423.67743759218	147.201902564452	2098.03949842922	1204.29735344972	138.522635469237	2367.38575174161	1876.53418656373	161.917770049098	2707.42925482184	1397.12803796804	137.001327222897	2551.99779981265	1300.87781849736	139.409803455472	1841.37413728706	914.693805675371	126.016400054859	2229.62023335794	1461.85435636419	128	2735.78764919017	308.994558437232	126	851.394621656171	2613.45175235617	134.41566369631	4104.18129558472
365.220527025378	139.539491297858	807.003170485799	1710.85247874848	176.720408972099	2568.72984585471	1080.35826007434	138	2252.65407072398	1835.54121103391	147.314760770662	2681.70306385259	1702.63229547949	127	3793.57553477411	1546.45721852649	136.202164422313	2303.24598544553	830.921177657224	125	1759.44387850244	1419.98873827053	147.178835633094	2095.52178429507	1201.12160124512	138.538267465105	2363.8299043397	1873.66238365369	161.917770049098	2703.47304571282	1395.24424128904	137	2549.42846482112	1299.74730063162	139.432084568961	1839.74987742432	913.749440165855	126.016400054859	2227.19500306508	1460.60956960453	128	2732.17768391256	308.844069102567	126	850.243118160335	2612.82472065031	134.423304721269	4102.49065496339
365.091243139344	139.548151698701	806.179297469794	1709.35033232431	176.725774214722	2564.53621426882	1079.84115329199	138	2250.1116763584	1834.03912350186	147.276136516073	2678.95406974027	1699.88725264221	127	3786.12164931616	1543.2673178254	136.196301052989	2300.82157512693	828.915937821803	125	1755.72242434765	1415.84020977963	147.142233377408	2091.62373980601	1198.05157023386	138.541502581081	2359.41512290373	1870.60829513662	161.896009351275	2698.57799063787	1393.11921499577	137	2545.80528959788	1298.12195594102	139.439622203775	1836.9104483186	912.702403750906	126.025106444853	2223.91245219399	1459.25602352677	128	2727.48143618833	308.699962290061	126	848.932838875629	2612.34646840491	134.434121023543	4101.06307388161
364.913119796848	139.536940242208	805.00913800156	1707.63039365687	176.703741718354	2559.00345254256	1079.12981330148	138	2246.41040970833	1832.28086905818	147.224209336535	2674.95327129458	1696.67615983222	127	3776.19367516337	1539.72585822013	136.179616643789	2296.9148371237	826.683385550196	125	1750.81128923443	1411.4826718581	147.101880377306	2086.56648246171	1195.19544182563	138.529473161733	2354.36511365981	1867.52172633455	161.854495344615	2693.11589616459	1390.86616556148	137	2541.35061587324	1296.12746623761	139.427592784427	1833.12538513458	911.593056092728	126.04072345119	2219.94620199747	1457.84821557661	128	2721.95643366833	308.567221050943	126	847.52845712143	2612.06890080542	134.451452540909	4099.87248951662
364.710786458422	139.510008876469	803.617139600093	1705.98388632785	176.660067367587	2552.99784156026	1078.31734585477	138	2241.94827530622	1830.44515499063	147.167339822261	2670.14215957227	1693.31342421175	127	3764.83515295474	1536.14686298642	136.15462082999	2292.02265810952	824.381816034865	125	1745.11985799259	1407.17582478111	147.064502673146	2080.70365960772	1192.62656556481	138.500867043269	2348.96331071579	1864.52178110663	161.796254363015	2687.44458198532	1388.59914061453	137	2536.38124026701	1293.91688468472	139.394684147125	1828.76290852779	910.459059892613	126.061156926116	2215.50898159849	1456.43364506867	128	2715.89161921236	308.444098732739	126	846.08220767876	2611.97902931272	134.477364530763	4098.81142585367
364.513503146601	139.472170370176	802.145874872819	1704.66042427228	176.601594142161	2547.3413818822	1077.50682209153	138	2237.18479285668	1828.70212781774	147.113630179914	2665.006922167	1690.10651617997	127	3753.17710574208	1532.81035736009	136.124861433113	2286.7031909229	822.171312341623	125	1739.12566979923	1403.15669940371	147.035529024564	2074.45317159665	1190.38350667711	138.45682829087	2343.51395550351	1861.68894111884	161.72611924836	2681.85007907677	1386.42060144636	137	2531.25942367218	1291.64543259785	139.343996277105	1824.22241802638	909.332578220819	126.082403674188	2210.82520712326	1455.05054475349	128	2709.57281919964	308.326860344509	126	844.633729953147	2612.00624038162	134.509036987033	4097.7282164826
364.346872556026	139.429020338555	800.730709163482	1703.82210370251	176.534661760099	2542.64848674089	1076.79110986408	138	2232.55349773327	1827.18039923163	147.069152925397	2659.97753741448	1687.31257088502	127	3742.23692079993	1529.92429962262	136.094153476796	2281.4717761227	820.191352812285	125	1733.29702029816	1399.6136015784	147.016400054859	2068.22774784136	1188.4837867925	138.399784832112	2338.31296827682	1859.0812341742	161.64882099676	2676.54332946559	1384.41713010105	137	2526.34856023284	1289.4585411025	139.281237201061	1819.88292587297	908.241382581283	126.101082211157	2206.11331660304	1453.72324197544	128	2703.26451678158	308.209896835419	126	843.214130674008	2612.03042471015	134.542638100616	4096.47483284378
364.230979370769	139.38417555392	799.47742780293	1703.5220464433	176.465338239901	2539.24934631441	1076.24227964114	138	2228.39551077118	1825.95100392825	147.036856247461	2655.36482157402	1685.1094716269	127	3732.78115570091	1527.61035637314	136.065807178367	2276.72649131151	818.546330602403	125	1728.0295744669	1396.67347256506	147.005977475148	2062.37846582872	1186.93653303472	138.334499331641	2333.62401027268	1856.75058033672	161.570193913149	2671.67476349539	1382.66272633799	137	2521.97786145799	1287.48212361602	139.214712391071	1816.06484061212	907.212893976847	126.113897378801	2201.58489883866	1452.47339504932	128	2697.21865231432	308.090252546608	126	841.858021907316	2611.93528154457	134.573891006302	4094.96695447236
364.172964288613	139.342207986037	798.44980096115	1703.70396465459	176.398405857839	2537.17757611433	1075.8954778089	138	2224.91412846403	1825.01599734002	147.016400054859	2651.32954304409	1683.58017514317	127.001327222897	3725.21642171392	1525.9008016473	136.042050674087	2272.69319813476	817.292531891779	125	1723.58506427476	1394.39209845271	147.001327222897	2057.13957986062	1185.7393709911	138.266781201282	2329.65322993498	1854.73419100371	161.495635982894	2667.35484700461	1381.20360074157	137	2518.40775973247	1285.80451477174	139.151556599585	1812.99870038491	906.278341814908	126.118459717673	2197.45078479208	1451.32788332818	128	2691.68859747691	307.968330672217	126	840.611979332562	2611.64901992735	134.598748059039	4093.2206067131
364.170343901351	139.306422131982	797.668280096622	1704.2378962938	176.339932632414	2536.23695959275	1075.7549253522	138	2222.17354896614	1824.32837622558	147.005977475148	2647.90433152407	1682.715372003	127.004650252251	3719.62922139148	1524.75520065336	136.023779221956	2269.45713721164	816.437215218609	125	1720.090495681	1392.76112596303	147	2052.64576470676	1184.89055838421	138.203745636985	2326.53590306914	1853.07125603035	161.428735984215	2663.6727519526	1380.06542161094	137	2515.80528874282	1284.47995762498	139.098013173577	1810.81155146879	905.472755661256	126.113897378801	2193.9138505283	1450.32076551835	128	2686.92610297823	307.849510665335	126	839.538258185345	2611.17328759335	134.616231530918	4091.36412849925
364.210173544869	139.278531003891	797.113422828072	1704.94544565865	176.296258281646	2536.08473441269	1075.78810449158	138	2220.11591412822	1823.80223607815	147.001327222897	2645.02856930749	1682.42504219723	127.011749802608	3715.83692779861	1524.08015872998	136.011749802608	2266.99588854538	815.943691136177	125	1717.54138185884	1391.72276077738	146.998672777103	2048.94878664586	1184.38181207991	138.151276982845	2324.33348076338	1851.79203478047	161.372684480687	2660.70067227895	1379.24246251539	137	2514.22934607948	1283.51844621461	139.057123506049	1809.51806452314	904.828385347298	126.101082211157	2191.15574341304	1449.48716879768	128	2683.15504402884	307.74199784652	126	838.707138705022	2610.58909275257	134.626972385559	4089.62411757606
364.273430318903	139.26025231085	796.73619238088	1705.64470072471	176.272898562381	2536.31687528941	1075.93807138702	138	2218.58875027845	1823.33809281734	147	2642.58478481892	1682.56062441583	127.023779221956	3713.48378263355	1523.7510507723	136.004650252251	2265.22730862047	815.738759751394	125	1715.82804931681	1391.18393814825	146.995349747749	2046.05044915728	1184.19817301855	138.114692845176	2323.03047460982	1850.90926444013	161.328607070098	2658.47877059041	1378.69642458502	137	2513.62379242066	1282.88621535015	139.029756697104	1809.02066628176	904.368257785784	126.082403674188	2189.3068711767	1448.85516995719	128	2680.53073876455	307.654624748621	126	838.182140072588	2610.03660680067	134.631088981404	4088.27261289682
364.339416782778	139.252231725904	796.471352632098	1706.18423662769	176.274940775651	2536.5572780268	1076.13613348211	138	2217.39593939928	1822.8492765035	147	2640.44342051648	1682.94324532261	127.04072345119	3712.13959177643	1523.6362376449	136.001327222897	2264.04871068306	815.729086550442	125	1714.77233011424	1391.03658630872	146.988250197392	2043.93218349812	1184.31790238436	138.094523927885	2322.53658889792	1850.41854506151	161.295475233124	2656.98623112432	1378.3607658466	137	2513.81398620371	1282.51628405214	139.013077025505	1809.1137641943	904.098719692151	126.061156926116	2188.40457168053	1448.43039085471	128	2679.07582498999	307.594696832202	126	837.996290709675	2609.67398889188	134.628118423063	4087.55389986776
364.387934698273	139.253152760493	796.24966711688	1706.46081974833	176.302299926024	2536.50249425379	1076.31020506925	138	2216.32521110809	1822.26695205147	147	2638.4769800901	1683.39525667099	127.061156926116	3711.37775765348	1523.61738563973	136	2263.36032630195	815.816775940132	125	1714.163654554	1391.17658939776	146.976220778044	2042.56887721183	1184.71604310763	138.089586400323	2322.70075881907	1850.29853686413	161.270530267009	2656.12696761502	1378.15404602921	137	2514.53386791426	1282.32098399859	139.004650252251	1809.51281107574	904.009285512379	126.04072345119	2188.36911015648	1448.19963866353	128	2678.65020308025	307.565478481213	126	838.13659594952	2609.65122443614	134.617068562773	4087.63602891119
364.404764821683	139.261851332292	796.013602350323	1706.43489635687	176.352243764851	2535.9669058758	1076.40403258548	138	2215.19573945237	1821.56021792746	147	2636.58682451334	1683.76559765804	127.082403674188	3710.8325004089	1523.60497661216	136	2263.07115894142	815.913137158917	125	1713.79036283796	1391.51704021664	146.957949325913	2041.92466401591	1185.36235590107	138.09680792259	2323.31600123535	1850.51109244031	161.250101529684	2655.71328656567	1377.99109981483	137	2515.44730648884	1282.20937852776	139.001327222897	1809.88637853616	904.067607255039	126.023779221956	2188.99976894307	1448.11885850728	128	2678.94704647546	307.56536437539	126	838.536120219358	2610.0451553512	134.596347742962	4088.56355216612
364.381803562582	139.276400877243	795.721050500823	1706.11809066861	176.416726361572	2534.88543517104	1076.37860550509	138	2213.87443003102	1820.72681395089	147	2634.69955383002	1683.96349086173	127.101082211157	3710.21804723004	1523.56131306479	136	2263.08754682369	815.958406514111	125	1713.46160809537	1392.00625547755	146.934192821633	2041.93427056215	1186.23271105371	138.110382715658	2324.14506041925	1851.01307283565	161.23059389652	2655.49468187327	1377.80535789148	137	2516.20512984101	1282.10846936234	139	1809.91069576946	904.227371765878	126.011749802608	2189.99038224806	1448.1251534766	128	2679.5242748989	307.587676488498	126	839.076150753323	2610.85032310135	134.56455175356	4090.25102134221
364.316945777172	139.293345036904	795.35490127663	1705.55609341487	176.486043513372	2533.30639941201	1076.21803560794	138	2212.29739663617	1819.78582200663	147	2632.77808413901	1683.9549680536	127.113897378801	3709.3590936801	1523.48795320611	136	2263.32129347718	815.921042664746	125	1713.03233593209	1392.62000469581	146.904519300307	2042.50247179926	1187.30809061572	138.126974404306	2324.93474663303	1851.76356133753	161.209378078494	2655.17667329286	1377.55966503244	137	2516.48351772407	1281.97648222837	139	1809.31375237487	904.436071799873	126.004650252251	2190.98074751337	1448.15009161233	127.998672777103	2679.88181910837	307.620386784953	126	839.606460317763	2611.97694079593	134.522917519712	4092.50361763896
364.214624256496	139.31045555205	794.916932642087	1704.80582205318	176.550000112259	2531.35514967061	1075.92393659576	138	2210.46292027356	1818.7672209423	147	2630.80873014028	1683.76689692322	127.118459717673	3708.15349727739	1523.43158880139	136	2263.66827916447	815.803021514834	125	1712.40071592531	1393.3662168561	146.86916109174	2043.4851716101	1188.57138156402	138.143566162526	2325.45091792774	1852.71754102386	161.18426689604	2654.47892436219	1377.2486834037	137	2516.03922518747	1281.8005283168	139	1807.92023986078	904.642192765604	126.001327222897	2191.61958950204	1448.1303680195	127.995349747749	2679.55047060999	307.650675238578	126	839.971919720189	2613.26593615606	134.472175932398	4095.07237977826
364.083354933401	139.326732876412	794.423493881427	1703.93049322432	176.60154773181	2529.1870545851	1075.51675144889	138.001327222897	2208.41668283812	1817.7112544248	147	2628.78941042411	1683.4683257325	127.113897378801	3706.57329439201	1523.45992970656	136	2264.02040940574	815.633033174426	125	1711.52002496511	1394.26926632703	146.828979115151	2044.70783320085	1190.00988125445	138.159271082241	2325.52129297361	1853.8366660635	161.155948052887	2653.20710011811	1376.898322498	137	2514.76166132837	1281.59872836517	139	1805.69368550969	904.810711274831	126	2191.62397925813	1448.03038786388	127.986922974495	2678.17641236036	307.666556744027	126	840.041876207752	2614.54421475153	134.41566369631	4097.68165381054
363.932865598736	139.342205552302	793.897240398799	1702.98324309807	176.636532848037	2526.95025793831	1075.02775062504	138.004650252251	2206.2355917509	1816.65852273385	147	2626.72683741372	1683.15173856807	127.101082211157	3704.65906891706	1523.64836510546	136	2264.27907260208	815.45974066615	125	1710.3985875735	1395.36033754139	146.78352710875	2045.98862629483	1191.61050232912	138.173988939881	2325.06552662214	1855.0822720337	161.124861433113	2651.2965021789	1376.55459917088	137	2512.69114168705	1281.40371115486	139	1802.73971446997	904.927692008949	126	2190.84464219326	1447.85029527721	127.970243302896	2675.60490053109	307.66029965214	126	839.742843328082	2615.66709486481	134.356803182753	4100.10691641351
363.774463440568	139.359607455182	793.36088788245	1702.02243199133	176.657504669079	2524.76448452793	1074.49972240201	138.011749802608	2204.00885782494	1815.66103787892	147	2624.63380552428	1682.91127213483	127.082403674188	3702.48547869862	1524.05983797277	136	2264.35523853782	815.338184521263	125	1709.08846561226	1396.66158426087	146.734546021615	2047.15221982654	1193.35175261032	138.18991379323	2324.09497687676	1856.41230612778	161.095480699693	2648.81105694028	1376.26652145438	137.001327222897	2509.99197506193	1281.24986184553	139	1799.27373574508	905.005816958973	126	2189.28569709701	1447.62947232213	127.941549271054	2671.89921070639	307.63107656355	126	839.070691731759	2616.55906194923	134.298443288156	4102.18998871194
363.617680587782	139.382057775553	792.837691570618	1701.11242402733	176.669541816571	2522.73468893095	1073.98193621255	138.023779221956	2201.83927707941	1814.7798630905	147	2622.55114661391	1682.82910457019	127.061156926116	3700.19638421343	1524.73687124209	136	2264.21345147123	815.323189382571	125	1707.69078452325	1398.18589609195	146.684205397772	2048.08309585971	1195.20611219778	138.20894006361	2322.72867855812	1857.79080320946	161.071784653514	2645.95584649154	1376.08057159981	137.004650252251	2506.94687240297	1281.16959528922	139	1795.60328422867	905.076260086434	126	2187.0924814944	1447.43618002779	127.897336574172	2667.31527198852	307.583553255168	126	838.086355935899	2617.22448888682	134.244207230313	4103.84611708218
363.470526838267	139.411905085809	792.346188495699	1700.32248188756	176.680327119226	2520.93474154309	1073.5234505456	138.04072345119	2199.82063433108	1814.08014990715	147	2620.53369978467	1682.95435783257	127.04072345119	3698.00042694503	1525.68858198295	136	2263.8889968233	815.456471830252	125	1706.34899704637	1399.92599132431	146.63635912475	2048.7527747384	1197.14113170628	138.233505033862	2321.1665049294	1859.19328058287	161.059777951843	2643.03949913715	1376.03197639661	137.011749802608	2503.90118911889	1281.18729240658	139	1792.07512817846	905.182027497803	126	2184.51908153394	1447.35091071582	127.836693597807	2662.25011176008	307.526250463611	126	836.903389585201	2617.73877354903	134.196039416324	4105.06178777072
363.339949787868	139.44865550939	791.903262187067	1699.71402085388	176.696639260707	2519.42901087329	1073.16488460051	138.061156926116	2198.0469305496	1813.6205274814	147	2618.66772688195	1683.31215099008	127.023779221956	3696.15262931915	1526.90112512816	136	2263.48683975779	815.766885040093	125	1705.22810659803	1401.86928756889	146.596174019676	2049.23012953442	1199.1235860654	138.266149113529	2319.6564628692	1860.61364293609	161.065285721668	2640.42176949501	1376.14062355862	137.023779221956	2501.20731132664	1281.31985182087	139	1789.02099351624	905.36297307205	126	2181.87274318393	1447.4452734816	127.761508386973	2657.15928382028	307.470433362668	126	835.659946373794	2618.21429141605	134.154076655615	4105.86966853368
363.230440803457	139.490877137416	791.521968585165	1699.33518542489	176.72253626103	2518.25032192563	1072.9352306587	138.082403674188	2196.59043977263	1813.44637580663	147.001327222897	2617.04153199071	1683.89263440776	127.011749802608	3694.93616655827	1528.33127026641	136	2263.17125710514	816.262939518253	125	1704.50060896328	1403.99157677419	146.569242653936	2049.67858509164	1201.12625865889	138.30763212057	2318.46037874081	1862.06757314681	161.092652530613	2638.46120148927	1376.41408379086	137.04072345119	2499.17699614453	1281.57772500536	139	1786.71687955496	905.643749322405	126	2179.45189235509	1447.76081092136	127.678039347749	2652.47377620509	307.42567649141	126	834.493021710846	2618.75892792042	134.120136711809	4106.32249547225
363.146041322812	139.533425579066	791.209513530091	1699.20273704555	176.758413156949	2517.40205397057	1072.84439602926	138.101082211157	2195.49260411665	1813.57311367918	147.004650252251	2615.729067291	1684.66016711744	127.004650252251	3694.59448336559	1529.91565319647	136	2263.11772838115	816.933140148873	125	1704.30742427636	1406.25680996364	146.560377796225	2050.30158577378	1203.12334839934	138.357039244078	2317.81299416606	1863.57665201891	161.142059654121	2637.45485674884	1376.8435861816	137.061156926116	2498.03833467047	1281.96015657155	139	1785.34686517398	906.031855661295	126	2177.50487435527	1448.30529341348	127.596174019676	2648.54134407482	307.399872966687	126	833.516653441808	2619.45461484255	134.094358624484	4106.48618281499
363.086880203152	139.572851058717	790.969165171938	1699.30780965347	176.801166473127	2516.85715029061	1072.88484693305	138.113897378801	2194.76157556803	1813.98545712168	147.013077025505	2614.78126789022	1685.56196603893	127.001327222897	3695.27380818174	1531.57868216559	136	2263.46729527578	817.747467541122	125	1704.72750341891	1408.61442784095	146.572407215573	2051.2876059497	1205.0892914491	138.411581111106	2317.88117495223	1865.15483886187	161.209390496348	2637.58710654294	1377.40458823186	137.082403674188	2497.90476767998	1282.45345388076	139	1784.98103357926	906.512121868462	126	2176.19386561332	1449.04519101303	127.527562430938	2645.58154237964	307.396816998277	126	832.80711803984	2620.32267311074	134.078884203872	4106.42129408215
363.05325630232	139.604507920755	790.805971508199	1699.61822723169	176.846444535045	2516.58444356223	1073.03785951646	138.118459717673	2194.38586009541	1814.64329813704	147.028429474207	2614.23475120176	1686.53947941961	127	3696.99774751537	1533.24427514134	136	2264.29694790436	818.663071180639	125	1705.76542530066	1410.9988298048	146.603988629979	2052.75917764314	1206.99367687845	138.465070819819	2318.7526999814	1866.79805031316	161.285366262651	2638.91690959141	1378.06003802425	137.101082211157	2498.77839179729	1283.03138490658	139	1785.58542630865	907.050265579238	126.001327222897	2175.59768100134	1449.91329447909	127.483074807025	2643.69266036366	307.415923250306	126	832.402206598107	2621.31909959372	134.077579698651	4106.19589230606
363.042833722609	139.626521952822	790.726209724009	1700.08830700162	176.889166851605	2516.56221069617	1073.27387969544	138.113897378801	2194.33604433376	1815.48414240136	147.052473253798	2614.11159622279	1687.53896586668	127	3699.63127607967	1534.844498213	136	2265.58799078589	819.628556866659	125	1707.3360694275	1413.32628257413	146.650026247748	2054.72132148397	1208.78877436997	138.513422878113	2320.42180351329	1868.45788486595	161.358540190262	2641.36911537346	1378.7529233473	137.1138973788	2500.557764719	1283.64729351899	139	1787.03552049785	907.600972133034	126.005977475148	2175.71170098881	1450.82344256218	127.470259639381	2642.8572801411	307.452519943772	126	832.299998678228	2622.34746903202	134.09425937025	4105.86441007241
363.051351178588	139.638805501887	790.742579950153	1700.67704942445	176.925766048379	2516.81142013465	1073.56423173342	138.101082211157	2194.59012689486	1816.44403916319	147.084936148072	2614.4434894906	1688.51810595634	127	3702.90601457877	1536.3306591993	136	2267.23302165419	820.590301405825	125	1709.28137318214	1415.50411433919	146.701035521183	2057.05701360545	1210.41865564192	138.551782575067	2322.80193564344	1870.05886280252	161.415842981819	2644.75840458131	1379.42113106061	137.118459717673	2503.06400762512	1284.25125811315	139	1789.14748615495	908.115631665734	126.016400054859	2176.47181923276	1451.68604305405	127.491506387453	2642.98150348632	307.4986088451	126	832.469583289444	2623.27671223821	134.130030234773	4105.47318689019
363.074233951621	139.641633533025	790.875297717791	1701.35541672721	176.954626296559	2517.41061148112	1073.88520456501	138.082403674188	2195.15004087602	1817.4696271198	147.123127125378	2615.28624514741	1689.4578087726	127	3706.48727035146	1537.68558057531	136	2269.07552089262	821.503857608441	125	1711.40768236642	1417.45141949244	146.745108332114	2059.56079380027	1211.8184547718	138.578694144101	2325.74473442047	1871.49982475958	161.448663909328	2648.8209020875	1379.99986108424	137.113897378801	2506.06934964	1284.78991327244	139	1791.70606049615	908.548351091795	126.035529024564	2177.76969764899	1452.4212889569	127.543433566992	2643.91472515463	307.544151464653	126	832.857545172131	2623.96964565575	134.18373987712	4105.0501032794
363.106182896145	139.637331014187	791.144848737061	1702.11234895988	176.974893555147	2518.47056929292	1074.22185178571	138.061156926116	2196.03032077094	1818.52434546266	147.162239137273	2616.69484397022	1690.36061435115	127	3710.02681576507	1538.92198895365	136	2270.94009524543	822.337140901171	125	1713.51812310057	1419.11253488653	146.772190924661	2061.98536957503	1212.92787676196	138.594046592802	2329.05491220897	1872.67711158486	161.451986938681	2653.23607214339	1380.43479544426	137.101082211157	2509.31560472099	1285.22218119359	139	1794.48491962411	908.86387665948	126.064502673146	2179.47599646198	1452.97224331357	127.616353364885	2645.4826804557	307.578880285241	126	833.399003205536	2624.31288422364	134.249315781388	4104.61597528595
363.141805662347	139.629181088325	791.572067777833	1702.95532416388	176.988250197392	2520.13883174287	1074.57267177321	138.04072345119	2197.27322225405	1819.60013205775	147.196301052989	2618.73544862406	1691.24418434766	127	3713.26240983201	1540.0774106118	136	2272.69391493218	823.075128848728	125	1715.46357459395	1420.47217797243	146.77632722716	2064.11808314839	1213.70533897383	138.599605576614	2332.51298833783	1873.51510849022	161.427592784427	2657.66004106835	1380.6965616108	137.082403674188	2512.54043288572	1285.53521266317	139	1797.26824976861	909.042323507055	126.101880377306	2181.44832331702	1453.3097386742	127.69823368249	2647.49254072746	307.594243033765	126	834.02396259375	2624.24117433972	134.316859967263	4104.19141784002
363.175054304917	139.618807470166	792.165819610101	1703.88920044373	176.995349747749	2522.53175667074	1074.93918395256	138.023779221956	2198.91200706712	1820.69598136669	147.21954192883	2621.43390354243	1692.14137159046	127	3716.08215907933	1541.20776973883	136	2274.28768160622	823.721713032591	125	1717.17544292185	1421.56889423192	146.758592442457	2065.85045838312	1214.14273786405	138.597031803289	2335.90389787556	1873.99447970193	161.383646635115	2661.77647010377	1380.79279833568	137.061156926116	2515.51662238196	1285.75193999808	139	1799.87713435516	909.083039772347	126.143560600305	2183.54382988767	1453.44198845381	127.775536671691	2649.74775257499	307.583947922152	126	834.662383751866	2623.75805987239	134.375917696778	4103.81123255092
363.202190614758	139.610630019455	792.918177121498	1704.90783619376	176.998672777103	2525.68609401219	1075.32483405271	138.011749802608	2200.95191287311	1821.81654507709	147.227794757601	2624.74966713238	1693.07559536917	127	3718.57125070121	1542.35952959247	136	2275.78347240915	824.292640139719	125	1718.68509299225	1422.48137405416	146.725600491435	2067.2279419743	1214.26894781621	138.589525168094	2339.05020717857	1874.16482837006	161.332067188989	2665.3542510002	1380.76639939329	137.04072345119	2518.09231023104	1285.93183178088	139	1802.20177517493	909.000579559555	126.183485885345	2185.62971851961	1453.40336452242	127.837484153277	2652.05964369186	307.546140415478	126	835.25064369947	2622.92075799877	134.415842981819	4103.51962577226
363.220957065105	139.605930785174	793.800502914908	1705.9745305955	177	2529.5096047567	1075.72335998611	138.004650252251	2203.34170030754	1822.95037381322	147.21954192883	2628.54604952974	1694.06268907375	127	3720.98759885083	1543.56329948489	136	2277.32999627679	824.814406147102	125	1720.11381599915	1423.32068852746	146.689539710349	2068.4447961043	1214.15128655069	138.578470500629	2341.84361109648	1874.13942106559	161.285620254426	2668.30196985778	1380.68917794521	137.023779221956	2520.22505199203	1286.15589287729	139	1804.22266018182	908.826061734498	126.214979589957	2187.5995872374	1453.25835162272	127.878373820805	2654.27350970959	307.484304605979	126	835.740339482551	2621.84427852614	134.429959179914	4103.37902267053
363.231379644816	139.604603562277	794.764228901882	1707.01369913263	177	2533.7579587714	1076.11466892772	138.001327222897	2205.96392359889	1824.05965931112	147.196301052989	2632.58541020122	1695.0971716108	127	3723.7031173721	1544.81160797435	136	2279.1208865447	825.315974915108	125	1721.64074045914	1424.1977726046	146.661910440119	2069.8065813606	1213.88843100359	138.565090099675	2344.26486575649	1874.07658875392	161.255342100623	2670.68944301814	1380.64529942924	137.011749802608	2521.99022200483	1286.50711773798	139	1806.01113171439	908.603009278436	126.232357096474	2189.38723229077	1453.09190807164	127.897336574172	2656.29500573808	307.406568339496	126	836.107248446994	2620.68034411599	134.415842981819	4103.43891848633
363.235065193529	139.605979767204	795.744417616161	1707.91501672021	177	2538.0420934054	1076.46086104855	138	2208.63348517154	1825.07745674031	147.162239137273	2636.53981998285	1696.15000777365	127	3727.08351462115	1546.05631398175	136	2281.3135388156	825.821147260243	125	1723.44884064622	1425.19783069763	146.652418301829	2071.64151520833	1213.58037773405	138.552280494253	2346.38531596046	1874.11952030799	161.247814835204	2672.72655981042	1380.69701858265	137.004650252251	2523.55602332379	1287.03114007069	139	1807.70255945725	908.378141842172	126.232357096474	2190.98500588446	1452.99454503548	127.899869048056	2658.11669059967	307.326872762363	126	836.361561493156	2619.58882990171	134.375917696778	4103.73884734223
363.234906725812	139.607057667558	796.67423585394	1708.55962187849	176.998672777103	2541.89002064491	1076.71623987385	138	2211.12967099481	1825.91920630032	147.123127125378	2640.04060016448	1697.16611175828	127	3731.36955376959	1547.20476403436	136	2283.9553114122	826.341727067955	125	1725.6699628928	1426.34649174615	146.66656069237	2074.19705937302	1213.31384037634	138.539317574571	2348.3351559417	1874.35817517769	161.263261730966	2674.68422260507	1380.86654858566	137.001327222897	2525.12125420779	1287.71648626063	139	1809.44037402073	908.195511608145	126.214979589957	2192.42839573868	1453.04547424163	127.892940313696	2659.79817359868	307.261319575771	126	836.544268698962	2618.71192400366	134.31818719016	4104.27015359658
363.231936237045	139.604074643472	797.492338453001	1708.83846136518	176.994022524852	2544.84265561002	1076.83016948087	138	2213.23139900165	1826.48594843321	147.084936148072	2642.73990053091	1698.07091288114	127	3736.59104907734	1548.13543068435	136	2286.94482042441	826.872459335912	125	1728.34171266985	1427.59715255184	146.702616735854	2077.55766940685	1213.13404851461	138.525953691416	2350.25170019641	1874.78782004296	161.296147650592	2676.7892947238	1381.12262137249	137	2526.83828788253	1288.48175063287	139	1811.31336601455	908.083156474579	126.183485885345	2193.79397156806	1453.29270940779	127.884775398303	2661.45964849749	307.222962382126	126	836.723437413343	2618.14132895633	134.252638810742	4104.99616739794
363.225964274493	139.591957310746	798.156816159391	1708.69175871574	176.982272722244	2546.55542282091	1076.76331669428	138	2214.76381114845	1826.6965139467	147.052473253798	2644.37304558725	1698.77418353568	127	3742.51661100649	1548.71674189169	136	2290.02658021654	827.386758579404	125	1731.3828408476	1428.82986277689	146.755357188539	2081.59356692194	1213.03690072379	138.512751235641	2352.22263122471	1875.30519373729	161.340216986754	2679.1347805745	1381.38439630525	137	2528.75322535854	1289.19236319824	139	1813.31086129884	908.050719564409	126.143560600305	2195.16570341461	1453.74201843727	127.881540282327	2663.22780235134	307.219639352772	126	836.973188730646	2617.90403216947	134.192166650374	4105.8383606499
363.21566916288	139.567399581404	798.650906083091	1708.12289978729	176.958493500288	2546.8887581337	1076.49632874158	138	2215.63405245463	1826.50330400961	147.028429474207	2644.8139855978	1699.19054498779	127	3748.70074694637	1548.84210395063	136	2292.84824252037	827.843121247286	125	1734.60885601904	1429.88165700872	146.815715948506	2085.9775230379	1212.97078319686	138.499936067997	2354.25136427081	1875.73116744248	161.386541949407	2681.63889345267	1381.5419579811	137	2530.7861865724	1289.69121786132	139	1815.32086990358	908.080655325824	126.101880377306	2196.60745028254	1454.34697492508	127.8861026212	2665.19354894204	307.248242550265	126	837.352829282975	2617.94031767193	134.146709906372	4106.69251956464
363.197869144385	139.529299576389	798.984035333918	1707.21144855228	176.919097271995	2545.94956668486	1076.0382081452	138	2215.85003971035	1825.91230615983	147.013077025505	2644.10072162084	1699.24744903001	127	3754.57692772134	1548.45334349338	136	2295.04757117411	828.189958762641	125.001327222897	1737.76900815773	1430.57856065587	146.874340400738	2090.25170342033	1212.85112007924	138.489897647932	2356.24268316618	1875.85990233234	161.429718173473	2684.0542901687	1381.49063655356	137	2532.75066421102	1289.84522612316	139	1817.15722421893	908.137830527338	126.064502673146	2198.14071190744	1455.02808854051	127.898917788843	2667.37704481465	307.297116065259	126	837.888712949803	2618.13430707273	134.122953402092	4107.44197322348
363.169082391991	139.477616740118	799.189048510302	1706.09628422765	176.86259059813	2544.08401920135	1075.42728253428	138	2215.52724662412	1824.988794836	147.004650252251	2642.44186006075	1698.90670874697	127	3759.57556703193	1547.56519502266	136	2296.34018159516	828.378414605548	125.004650252251	1740.59558081067	1430.78598075745	146.923747524246	2093.92417380427	1212.58707185912	138.48524989899	2358.02011273836	1875.51963222023	161.465504097101	2686.0306930237	1381.15938244001	137	2534.40666908839	1289.58434342673	139	1818.6128398418	908.17602224601	126.035529024564	2199.7371257138	1455.68278445811	127.917596325812	2669.71530316215	307.346790387654	126	838.56373434723	2618.32714610214	134.12311961843	4107.98023219134
363.126624633066	139.41742419649	799.314031373401	1704.94852752993	176.791936726549	2541.7999477427	1074.72668653632	138	2214.86411848525	1823.8514887767	147.001327222897	2640.17353633461	1698.16907225099	127	3763.28290410365	1546.26484026674	136	2296.61023881778	828.375315219665	125.011749802608	1742.87606687582	1430.44341840317	146.959820723185	2096.59953422227	1212.1029090666	138.488598704932	2359.37133025058	1874.61612107211	161.492989403187	2687.20150658304	1380.52900090484	137	2535.52682027458	1288.92133186359	139	1819.5158155282	908.147231915116	126.016400054859	2201.31400404232	1456.21063465037	127.938843073884	2672.0598309079	307.375663705004	126	839.317656351894	2618.35865403237	134.144177432488	4108.21217555607
363.068876215946	139.353716214724	799.407192075131	1703.92595481736	176.714633737349	2539.64386891342	1074.01062693814	138	2214.095297871	1822.64408978777	147	2637.68921732953	1697.07994783484	127	3765.52869395119	1544.69816269708	136	2295.9422565468	828.170973726502	125.023779221956	1744.49624978304	1429.5835391716	146.982272722244	2098.06962661766	1211.36175704818	138.500693319982	2360.10618552079	1873.16947939037	161.513158320478	2687.28680274899	1379.6417568054	137	2535.96605741026	1287.95324862275	139	1819.78008592689	908.017230865667	126.005977475148	2202.7600062926	1456.53526051999	127.95927654881	2674.21455879453	307.365106735529	126	840.060599045471	2618.10261002563	134.181293637926	4108.08474755582
362.995873242275	139.294689484828	799.507576243855	1703.14905341617	176.641459809738	2538.08234071907	1073.35311231298	138	2213.4448718622	1821.51350305667	147	2635.36752189815	1695.72245054649	127	3766.41091393904	1543.04165006797	136	2294.59645555718	827.784454869926	125.04072345119	1745.4589285446	1428.32880432339	146.994022524852	2098.35832585184	1210.37645301158	138.520356987127	2360.11525609986	1871.31049564744	161.527194679623	2686.173418411	1378.586182911	137	2535.70580952967	1286.83637902691	139	1819.42909037872	907.767784557268	126.001327222897	2203.95449182526	1456.61356646389	127.976220778044	2675.96817595824	307.303949809413	126	840.690425831139	2617.48647125204	134.226057750093	4107.58381461529
362.910055566442	139.24755124903	799.636875626603	1702.67248642555	176.584157018181	2537.40230995848	1072.81283777014	138	2213.0805337993	1820.58180278302	147	2633.49705616639	1694.21182317646	127	3766.27153040703	1541.47319949072	136	2292.95337238442	827.264009672783	125.061156926116	1745.8810301106	1426.87214245315	146.998672777103	2097.7157227977	1209.21177011261	138.544934513175	2359.40730121243	1869.26463532118	161.537983110764	2683.9617423427	1377.48319008117	137	2534.8655147581	1285.75443585288	139	1818.59923855558	907.401359486015	126	2204.80154259746	1456.44256712128	127.988250197392	2677.15084657486	307.190052430612	126	841.115158214706	2616.49921219531	134.272015182628	4106.74375536111
362.815731066133	139.218411384109	799.793715675594	1702.47160914234	176.552663313569	2537.65091382688	1072.41930831842	138	2213.07169761634	1819.91664826826	147	2632.22166319088	1692.67819778935	127	3765.60274765293	1540.14079010442	136	2291.42468592608	826.679380667188	125.082403674188	1745.96032119849	1425.43750079138	147	2096.5559401821	1207.97698593332	138.572153223799	2358.14375425995	1867.30812923581	161.547590687283	2680.99308297511	1376.46139796733	137	2533.70790244074	1284.87883719235	139	1817.53468015349	906.93785005682	126	2205.25019329251	1456.05481414853	127.995349747749	2677.67045724378	307.031667427899	126	841.271568937715	2615.18401996221	134.312730905673	4105.62732730524
362.715055939814	139.213068859162	799.959812727228	1702.45045005425	176.552663313569	2538.65532292151	1072.1672538402	138	2213.39656681173	1819.52389657184	147	2631.54658523015	1691.24457436396	127	3764.9290968828	1539.14049141634	136	2290.36409399267	826.107480230049	125.101082211157	1745.93061214443	1424.23901660565	147	2095.36634948351	1206.80861678289	138.59862608713	2356.60461452451	1865.71944353632	161.558164493801	2677.77660195641	1375.63682740447	137	2532.56965921386	1284.34087484291	139	1816.53291456891	906.410725190169	126	2205.31583676896	1455.51272723614	127.998672777103	2677.54814588246	306.843268898591	126	841.139535262298	2613.6279627375	134.342669054208	4104.33067703551
362.611355379222	139.232983577163	800.108495215589	1702.46926893179	176.584157018181	2540.08174995946	1072.02267695713	138	2213.95980865476	1819.36163664127	147	2631.36623479508	1690.01043063636	127	3764.7026160926	1538.50884613662	136	2290.01092583056	825.619268727679	125.113897378801	1746.01276509983	1423.44491789705	147	2094.60740303687	1205.84747902046	138.62335727372	2355.1479003868	1864.72381301462	161.572822512781	2674.90484737466	1375.09420630681	137	2531.80355228112	1284.20619690315	139	1815.89306763751	905.858089521198	126	2205.0678964166	1454.89167065677	128	2676.90294104177	306.644183162363	126	840.742177436299	2611.93846682033	134.359867413159	4102.95786380021
362.504451930484	139.276919426653	800.209574029475	1702.36420800416	176.641459809738	2541.50797335236	1071.92582399254	138	2214.61764578335	1819.34247616127	147	2631.49960579705	1689.03184987022	127	3765.20843792582	1538.22141509109	136	2290.45368647244	825.265228963033	125.118459717673	1746.37454865292	1423.1519207128	147	2094.63055058727	1205.21210127669	138.643201624421	2354.13818395228	1864.45029825326	161.59311561753	2672.92557718135	1374.87518780859	137	2531.70017077306	1284.46763997961	139	1815.85432130047	905.318401848411	126	2204.62089275388	1454.26839017263	128	2675.93231526542	306.452532361625	126	840.140904866094	2610.23091148773	134.363190442512	4101.62199539737
362.393211697251	139.341015152904	800.241339532632	1701.99605617607	176.714633737349	2542.53239632807	1071.81237676937	138	2215.22699183737	1819.3752325378	147	2631.76229216907	1688.31001845673	127	3766.52516413909	1538.20572067303	136	2291.6356019377	825.067106853345	125.113897378801	1747.10453653844	1423.37674589367	147	2095.62450143497	1204.98169034267	138.657076954018	2353.86365842733	1864.91267892464	161.620497416007	2672.21835602506	1374.97714869609	137	2532.41716150577	1285.05310394124	139.001327222897	1816.53557702915	904.822431438488	126	2204.09796166651	1453.70502387874	128	2674.85445180381	306.282914057255	126	839.418383229589	2608.60792838066	134.354418856816	4100.42195756504
362.275376960223	139.416205170912	800.190376943097	1701.27607783908	176.791936726549	2542.83754894564	1071.62630433583	138	2215.66617798476	1819.38473561204	147	2631.99407961136	1687.81136463566	127	3768.50689436165	1538.37648683456	136	2293.37038312994	825.021913531457	125.101082211157	1748.19188418433	1424.07681187893	147	2097.58419279544	1205.17978600987	138.663394230848	2354.47497133878	1866.00095723241	161.655915809517	2672.91365046379	1375.35312710332	137	2533.94364106525	1285.83364492976	139.004650252251	1817.90813322295	904.393003820966	126	2203.61379599289	1453.24513433971	128	2673.87355299522	306.14416992554	126	838.665514531246	2607.15410444955	134.337837350526	4099.44571983041
362.14997057774	139.494744341145	800.054303716105	1700.19012121603	176.863917821027	2542.24554821444	1071.33533027412	138	2215.86103414033	1819.33577965247	147	2632.09111308681	1687.46731755868	127	3770.82328614222	1538.64686052267	136	2295.38528297428	825.104720134625	125.082403674188	1749.53153241505	1425.1614569439	147	2100.32505429735	1205.77061406485	138.661900791612	2355.95813899892	1867.50850266424	161.697429816177	2674.8799016204	1375.92214454029	137	2536.10916064442	1286.65347989419	139.011749802608	1819.80407737817	904.042923757068	126.001327222897	2203.25073167313	1452.90884893294	128	2673.14012707599	306.038800302541	126	837.965288596811	2605.92686270692	134.318716108965	4098.74317757974
362.017351314071	139.566586308258	799.843976634373	1698.80133277732	176.923747524246	2540.73990044384	1070.93597763218	138	2215.79706043975	1819.24013135534	147	2632.01974013649	1687.20699839652	127	3773.03598885557	1538.95919597917	136	2297.36656092256	825.281591478325	125.061156926116	1750.94784837544	1426.52451232534	147	2103.52415405011	1206.66532633755	138.653631952754	2358.12964085584	1869.16622535954	161.740685879193	2677.75086877617	1376.58226470385	137	2538.60754518531	1287.35022111334	139.023779221956	1821.94301368189	903.77499387756	126.004650252251	2203.06298688681	1452.69549864094	128	2672.748917913	305.965080300671	126	837.387737178044	2604.9550761586	134.302287508171	4098.33298573912
361.879441085726	139.624264288504	799.577878330849	1697.2279436238	176.970243302896	2538.44333125793	1070.45158696308	138	2215.51195444759	1819.14394516913	147	2631.80163403306	1686.97312011689	127	3774.69534669013	1539.28621122262	136	2299.00718262937	825.520679083137	125.04072345119	1752.22660704042	1428.06047127394	147	2106.78439678582	1207.74322766274	138.639001804907	2360.68537003928	1870.70514003263	161.778788943121	2681.018736181	1377.23139606954	137	2541.06617094743	1287.7896995214	139.04072345119	1823.99154470046	903.586582223171	126.011749802608	2203.06547155627	1452.59117868622	128	2672.72668125982	305.919299512393	126	836.981579822936	2604.24732139444	134.294576084427	4098.17515498356
361.739196273865	139.661784519867	799.279266815594	1695.61547043342	177.0060519442	2535.57551379065	1069.91992289696	138	2215.0837222197	1819.10292249437	147	2631.49004115157	1686.72308789356	127	3775.43747870734	1539.6153634528	136	2300.04614275022	825.791612817489	125.023779221956	1753.16181544171	1429.66579566876	147	2109.71276889229	1208.86019467501	138.620386784953	2363.26410637965	1871.88393315801	161.804938035334	2684.14273271799	1377.76854165134	137	2543.11459573161	1287.87216010479	139.061156926116	1825.62537263346	903.471087131847	126.023779221956	2203.25685042808	1452.57401775656	128	2673.0578506112	305.896730348598	126	836.778166916562	2603.79664676915	134.298012514182	4098.20199546977
361.601368446301	139.676367091214	798.973731369613	1694.10588415493	177.034745976042	2532.39769546759	1069.38351760276	138	2214.60620369129	1819.16153446008	147	2631.13817547587	1686.43815560444	127	3775.06692778033	1539.94083338381	136	2300.30161413183	826.073336747651	125.011749802608	1753.59858054722	1431.24390957639	146.998672777103	2111.98698809673	1209.88677509241	138.598022699272	2365.52812459268	1872.54724390546	161.811587152954	2686.66298729383	1378.12067646656	137	2544.45898404665	1287.55875925174	139.082403674188	1826.59147892548	903.421187169485	126.04072345119	2203.60793664002	1452.62006979585	128	2673.6774337296	305.894617307832	126	836.784887196987	2603.58746087476	134.315118152581	4098.30817850047
361.470438924889	139.668995742311	798.684299094569	1692.81877451852	177.059829703219	2529.18118080396	1068.87800108224	138	2214.16920235082	1819.33316054921	147	2630.78032568976	1686.11769973145	127	3773.58895446608	1540.245880305	136	2299.68359160917	826.348903615154	125.004650252251	1753.45972312863	1432.70016295311	146.995349747749	2113.39961088868	1210.71461415496	138.573638914412	2367.2148554245	1872.6306176903	161.794128973969	2688.26461191183	1378.24359172217	137	2544.91981489782	1286.8652569786	139.101082211157	1826.74397571533	903.425391096036	126.061156926116	2204.08555531925	1452.70106541374	128	2674.50055728763	305.908554620259	126	836.989277111263	2603.58691964615	134.342923045982	4098.39476314063
361.351437732615	139.642265620778	798.431873313618	1691.83730438661	177.082403674188	2526.18234990767	1068.42575119768	138	2213.84166693126	1819.59612697045	147	2630.42187132515	1685.76758465792	127	3771.20321113997	1540.49642601034	136	2298.20207215773	826.601517650445	125.001327222897	1752.75634696507	1433.93523094171	146.988250197392	2113.8728644949	1211.27614882768	138.550800316235	2368.18214968135	1872.17155830985	161.753942190206	2688.83497457593	1378.13495239791	137	2544.4694372588	1285.86865575354	139.113897378801	1826.07846154573	903.473106184445	126.082403674188	2204.64977579329	1452.79352539135	128	2675.42978078781	305.934990987783	126	837.357674936036	2603.7579517879	134.379613215047	4098.38184035357
361.249119340425	139.601594142161	798.237314246882	1691.20907372703	177.101082211157	2523.65613209965	1068.03754053437	138	2213.67651360258	1819.90789281477	147	2630.06763008933	1685.39502088058	127	3768.28091467405	1540.64771481729	136	2295.97832174651	826.812519801528	125	1751.59384057436	1434.85311115621	146.976220778044	2113.45527750229	1211.54089967075	138.533949690697	2368.40740346805	1871.2813489654	161.694721719122	2688.45627389179	1377.82844976223	137	2543.22391972731	1284.68905640908	139.11978694057	1824.73341040556	903.54795737223	126.101082211157	2205.26322756606	1452.87269531165	128	2676.37515864212	305.96700344932	126	837.839574295085	2604.04063164975	134.418725226942	4098.22063342705
361.165960847987	139.553790729804	798.128817118138	1690.94379180784	177.1138973788	2521.87282579006	1067.71239427969	138	2213.7314862645	1820.21575644167	147	2629.76178651261	1685.00736424179	127	3765.32266321721	1540.66131077079	136	2293.25267536609	826.963035318007	125	1750.16052273568	1435.37291207826	146.95927654881	2112.31009063506	1211.51320777204	138.527300573077	2367.97932559742	1870.12446012383	161.625037037203	2687.37622265767	1377.39449765787	137	2541.42932599987	1283.48132963325	139.118547631051	1822.97733290869	903.63673447133	126.113897378801	2205.90820640703	1452.93255379904	127.998672777103	2677.28818518577	305.997467526116	126	838.377149820399	2604.38219628411	134.454287950899	4097.90946433212
361.102663425828	139.504734468194	798.136082107113	1691.00986290182	177.11978694057	2521.08992934742	1067.44209427004	138	2214.06502686764	1820.4720228823	147.001327222897	2629.59888938542	1684.61382144309	127	3762.87337374977	1540.52082417812	136	2290.35941889357	827.037531586482	125	1748.69981100607	1435.44628753436	146.938843073884	2110.67897689062	1211.22420482654	138.53413306249	2367.05503050511	1868.87830625348	161.555379810562	2685.94103396557	1376.92058424978	137	2539.40766831738	1282.40528850985	139.112832013765	1821.15950172405	903.733439362914	126.11978694057	2206.59983024553	1452.98675921764	127.995349747749	2678.18505705455	306.020962531674	126	838.919931870989	2604.74579709554	134.480859604716	4097.48884530371
361.058450728946	139.459562783955	798.292714787806	1691.3467911151	177.119874853948	2521.52426871988	1067.21994450974	138	2214.75175521883	1820.65654158915	147.005977475148	2629.73095957561	1684.22375351937	127	3761.44321029272	1540.23502453082	136.001327222897	2287.68777604857	827.029458059236	125	1747.47618424436	1435.06350637913	146.917596325812	2108.84188059951	1210.71959856376	138.555732351149	2365.83591803991	1867.70014143596	161.497107898916	2684.52561466463	1376.49720667252	137	2537.50753314058	1281.6019989599	139.106182896145	1819.65352493948	903.837757151598	126.118547631051	2207.39074989283	1453.06941725684	127.988250197392	2679.15622832554	306.034938705876	126	839.436672388638	2605.11504661078	134.494054768223	4097.02979442236
361.029756697104	139.421009083705	798.62538044933	1691.86398502883	177.117482266015	2523.29278307087	1067.0391936292	138	2215.85803955776	1820.76576765906	147.016400054859	2630.32924839365	1683.85772755455	127	3761.41870849417	1539.84450645092	136.004650252251	2285.61214791797	826.947175897965	125	1746.73249887627	1434.26313105455	146.898917788843	2107.07062594036	1210.05060275301	138.590308216616	2364.51193383176	1866.69804261026	161.459295585069	2683.43571096056	1376.19504486454	137	2536.01747898752	1281.16323927847	139.101880377306	1818.76570550855	903.959718374927	126.114159236662	2208.37633448406	1453.22946270693	127.976220778044	2680.36653078	306.042033518632	126	839.928528188192	2605.49963989635	134.492614214498	4096.63243685715
361.013077025505	139.391363017655	799.150744551039	1692.46685203506	177.11925992165	2526.38224206899	1066.89845849069	138	2217.43603117292	1820.81851567063	147.035529024564	2631.54767876455	1683.54136206461	127	3762.94758490271	1539.40397248166	136.011749802608	2284.3921046481	826.812553263756	125	1746.63006920139	1433.11648423385	146.8861026212	2105.55657994784	1209.26543065504	138.632136587561	2363.23701518499	1865.91208675003	161.446913694707	2682.84752053219	1376.04844517295	137	2535.1129106384	1281.1151032274	139.101880377306	1818.67262053696	904.110474691232	126.110833148395	2209.67393675116	1453.51090779451	127.95927654881	2682.01627863387	306.048344192208	126	840.429828127416	2605.91572426023	134.47725863731	4096.41049320791
361.004650252251	139.37172310922	799.869756520897	1693.0742933155	177.13163707441	2530.63558476716	1066.80127992763	138	2219.50227298378	1820.84662781464	147.064502673146	2633.47313294863	1683.30089988216	127	3765.909277505	1538.96533235276	136.023779221956	2284.11259488253	826.656618753612	125	1747.2187562301	1431.71472344524	146.881540282327	2104.37501530787	1208.39611774054	138.676472984667	2362.08996494135	1865.30277593762	161.461843165949	2682.74993164963	1376.04475106292	137	2534.80343189582	1281.4066888513	139.107510119041	1819.36496195059	904.30007467932	126.113630179914	2211.38978480203	1453.93916716078	127.938843073884	2684.28201690646	306.062110085213	126	840.996065252443	2606.37826499757	134.450933991499	4096.48001452727
361.002654445794	139.36252172101	800.766401986157	1693.62835938669	177.160331106252	2535.7837397076	1066.74892855743	138	2222.02758315235	1820.87357072015	147.103207600203	2636.09892783298	1683.15700798333	127	3769.92295199888	1538.56548046493	136.04072345119	2284.65487016717	826.512197565283	125	1748.42507047595	1430.14903141323	146.8861026212	2103.46720969586	1207.46315947816	138.715584996561	2361.08623843696	1864.77597898759	161.499627954947	2682.96925175422	1376.13523610969	137	2534.95248758232	1281.92996190901	139.117482266015	1820.66050033388	904.52543277308	126.125659599262	2213.57056769935	1454.50087508241	127.917596325812	2687.23855453056	306.089603555777	126	841.683135093886	2606.87413812027	134.418079001919	4096.93542805989
361.004650252251	139.363444434287	801.80730448525	1694.103353729	177.207519099076	2541.48501635222	1066.73846973512	138	2224.92971085706	1820.90872832321	147.148210852555	2639.31347503329	1683.10838037015	127	3774.43290884269	1538.21104254741	136.061156926116	2285.73452132344	826.402158116861	125	1750.07466509944	1428.49797180745	146.898917788843	2102.67456191712	1206.46658312556	138.743501492477	2360.15669556605	1864.19545684414	161.552301124476	2683.1822484277	1376.23879861899	137	2535.28580849692	1282.53649945796	139.130297433659	1822.22392496642	904.766053012709	126.146906347334	2216.16030968854	1455.13573769826	127.898917788843	2690.79012774934	306.130216375913	126	842.517981635774	2607.34829897956	134.382035057877	4097.82687414979
361.011749802608	139.373897597761	802.944430337202	1694.50830675355	177.271488163707	2547.38101308632	1066.76382249543	138	2228.07562744095	1820.95227262754	147.195235687953	2642.91203939436	1683.13603036337	127	3778.81414181359	1537.8920853274	136.082403674188	2286.97200288178	826.336800013592	125	1751.92555413602	1426.82917628678	146.917596325812	2101.78561085346	1205.39793755052	138.75604966875	2359.18327266549	1863.43089579371	161.608636982345	2683.0117643608	1376.27192601319	137	2535.47365074239	1283.07793042401	139.143566162526	1823.65171211572	904.988591035325	126.173988939881	2218.97992224664	1455.74997510577	127.886102621199	2694.65087558996	306.179633799244	126	843.480112563912	2607.7213402573	134.347578035834	4099.14756982206
361.025106444853	139.390315411498	804.112356371065	1694.86678253471	177.346616664367	2553.11803916635	1066.81011924422	138	2231.2773667065	1820.98983588666	147.238758811913	2646.61283344626	1683.20249282108	127	3782.49124253557	1537.5901763603	136.101082211157	2287.99080075936	826.311799664363	125	1753.71907994584	1425.20385890076	146.938843073884	2100.60794132118	1204.24757525558	138.751774605189	2358.03581768054	1862.39083516503	161.656293905496	2682.12475247668	1376.16610790072	137	2535.21686024718	1283.43492335256	139.15462082999	1824.56666503681	905.147293005486	126.202278528136	2221.7495781183	1456.22673629738	127.881540282327	2698.38137369777	306.227009009305	126	844.497313592038	2607.89253591805	134.318184490386	4100.83275272312
361.046700926337	139.408471425401	805.236433606035	1695.21347420429	177.422618623116	2558.38701677126	1066.8594341168	138	2234.31458896393	1821.01074531297	147.273080547663	2650.10804428021	1683.26019738874	127	3785.04038076883	1537.29505786959	136.113897378801	2288.50669764812	826.311658547063	125	1755.22719353957	1423.68133940208	146.95927654881	2099.02287493917	1203.02288796458	138.732171192561	2356.60130131401	1861.06372071533	161.684265015236	2680.31337585206	1375.89702210701	137	2534.31394876486	1283.5509850022	139.162239137273	1824.69526215947	905.195774929649	126.225519403977	2224.12876289243	1456.45625846939	127.8861026212	2701.46229397004	306.260252962166	126	845.453532588238	2607.76878990706	134.296802456021	4102.75392980668
361.077556980975	139.421291400219	806.237515572707	1695.57824691839	177.49007693344	2562.92628646451	1066.89377544567	138	2236.95213911499	1821.01820365237	147.29351402259	2653.10356831393	1683.26631283234	127	3786.23107669234	1537.01735393623	136.118459717673	2288.38160484763	826.315067589911	125	1756.27686446896	1422.32273924025	146.976220778044	2097.01316931247	1201.75263574828	138.702271702216	2354.81312858804	1859.52291827925	161.685050763532	2677.5528723755	1375.4893042668	137.001327222897	2532.70609176804	1283.43681075789	139.164807348377	1823.92806268543	905.099177805285	126.239544560209	2225.80169743252	1456.36297248419	127.898917788843	2703.42932322642	306.269457825145	126	846.220954525393	2607.29407345215	134.285603098971	4104.75417581865
361.117932698753	139.424899143052	807.044379179794	1695.97971666212	177.542119551206	2566.55059862755	1066.89969503793	138	2238.9852951884	1821.03407437704	147.297383264146	2655.38135500304	1683.18572906075	127	3786.05751550208	1536.7857885613	136.115224601697	2287.65032564005	826.300216995448	125	1756.77918173212	1421.18297479667	146.988250197392	2094.66888025185	1200.49015268737	138.666167573231	2352.68805817649	1857.91997520645	161.654949527144	2674.03951519956	1375.01424565915	137.004650252251	2530.51158484786	1283.16859159094	139.162239137273	1822.35391329885	904.847514873121	126.243321150786	2226.54998750704	1455.93238848988	127.917596325812	2703.98842722371	306.249830382455	126	846.690844331373	2606.47898136257	134.285630554248	4106.66380546357
361.165584884303	139.414865530161	807.608688705411	1696.42287991435	177.575375921921	2569.16167658496	1066.86874651776	138	2240.27963528275	1821.09733006304	147.284568096502	2656.83772879743	1683.00387288309	127	3784.7233619517	1536.64208090248	136.105732463407	2286.49878037032	826.250540018121	125	1756.73556904902	1420.30111107408	146.995349747749	2092.16928426234	1199.3082234851	138.629714744731	2350.3263166672	1856.45488382862	161.596897479559	2670.15459347323	1374.57485090479	137.011749802608	2527.99206075045	1282.86565978641	139.15462082999	1820.23418232917	904.459209468354	126.237024504179	2226.30635914465	1455.21960355756	127.938843073884	2703.09173752597	306.203229787349	126	846.802819838918	2605.41025387989	134.296423792563	4108.32680783458
361.215777756107	139.392317751637	807.912497756683	1696.89069677948	177.592478501407	2570.75077047293	1066.79842945498	138	2240.7990433153	1821.24749927768	147.257457979105	2657.49587989	1682.73199862352	127	3782.58736087987	1536.63129149769	136.094153476797	2285.20777235009	826.162353647077	125	1756.22637084428	1419.6984181614	146.998672777103	2089.74189806743	1198.2885029283	138.596604863223	2347.91037415356	1855.33740646886	161.518506407647	2666.40255449696	1374.28328756111	137.023779221956	2525.50879062987	1282.66418627483	139.142238939629	1817.95156031169	903.987379940914	126.223396063389	2225.17959820809	1454.34886640405	127.95927654881	2700.97078455781	306.140237570951	126	846.562597215184	2604.25305051159	134.315908708051	4109.6368032598
361.263347540875	139.36067114153	807.970953396534	1697.34708113676	177.599953310026	2571.38379705838	1066.68723346618	138	2240.61210285369	1821.50746494368	147.220340094979	2657.48526694974	1682.39889068472	127	3780.09324338049	1536.7773403623	136.084936148072	2284.07904905857	826.041014408785	125	1755.39360230109	1419.36585333955	147	2087.62224795289	1197.50421755307	138.569333267088	2345.68125576208	1854.73791678697	161.432063751169	2663.32105362608	1374.22885230347	137.04072345119	2523.44856816915	1282.67739057855	139.125647181409	1815.93041889514	903.507745136879	126.205530799567	2223.43039391428	1453.48657215724	127.976220778044	2698.08623312515	306.075036924945	126	846.042111674063	2603.21431531718	134.339577298953	4110.54613491408
361.303360739293	139.326183189441	807.830757918743	1697.74708138015	177.606355025466	2571.20053588791	1066.53550161326	138	2239.88468371183	1821.87325643043	147.178400051947	2657.01296852011	1682.05177034567	127	3777.67875960692	1537.08186799015	136.08144690238	2283.3516902955	825.906110814801	125	1754.40669302479	1419.26834468805	147	2085.99718952701	1197.00715068716	138.550274387974	2343.90404223112	1854.75089452985	161.351979207216	2661.37872079933	1374.46041713837	137.061156926116	2522.14926793319	1282.97479087172	139.105732463407	1814.55152724718	903.104366351736	126.186018359229	2221.40682887653	1452.80776848075	127.988250197392	2695.02272587888	306.024927159345	126	845.361016268802	2602.50096639547	134.363213160188	4111.05830749544
361.332461855973	139.296571890884	807.565208390181	1698.05317220534	177.619859766032	2570.41982864428	1066.34620108032	138	2238.86044160558	1822.31596324438	147.136611235721	2656.3319780099	1681.75095105607	127	3775.71820234438	1537.5240391847	136.084936148072	2283.16281128569	825.78639485335	125	1753.43804982958	1419.35741593787	147	2084.97914504801	1196.81268466276	138.539334730025	2342.81255531683	1855.37123453447	161.290293224352	2660.86878089854	1374.97284819057	137.082403674188	2521.82680738718	1283.56384846347	139.083730897085	1814.07195508253	902.85137510361	126.166370632599	2219.48293795067	1452.45565462288	127.995349747749	2692.37881114783	306.003861596665	126	844.66035957731	2602.26807121164	134.38056447426	4111.23412671223
361.351617018123	139.279220576813	807.257681796854	1698.24058930933	177.646016586389	2569.31376376921	1066.12526399322	138	2237.81372549512	1822.78578978241	147.098803729047	2655.69805398073	1681.55865699476	127.001327222897	3774.47740709377	1538.06833977454	136.094153476797	2283.53882920221	825.716370248215	125	1752.63873366294	1419.57957366359	147	2084.59880352569	1196.89834967778	138.536917745729	2342.57960601936	1856.50300093348	161.257017056932	2661.88118066153	1375.7154270905	137.101082211157	2522.55753952242	1284.40024207954	139.061156926116	1814.60255545866	902.798147097204	126.14688919188	2217.9821198343	1452.51708914039	127.998672777103	2690.64768170986	306.02132701656	126	844.072207166737	2602.58887862104	134.388994722283	4111.17003184327
361.363994170883	139.279420211904	806.990176731707	1698.31596025189	177.686304594374	2568.1960534114	1065.88794758967	138	2237.01024073579	1823.23967132018	147.068461624161	2655.34681359605	1681.5314081469	127.004650252251	3774.13043276638	1538.68100655949	136.105732463407	2284.43993280733	825.730300694888	125	1752.13943584922	1419.89421250818	147	2084.83131998136	1197.2076190365	138.541966458143	2343.28472488826	1857.98157430244	161.25554724831	2664.30930871868	1376.6078150876	137.1138973788	2524.28589531148	1285.40531394247	139.04072345119	1816.11497949546	902.955809093641	126.126974404306	2217.12464372812	1453.0007132021	128	2690.13440210827	306.077383257688	126	843.691703641393	2603.42694697475	134.385218201279	4110.96464944313
361.375310696209	139.299334929905	806.835674749925	1698.31155777822	177.737891768644	2567.39183683118	1065.65753113773	138	2236.67519706251	1823.65279371257	147.046700926337	2655.48428095432	1681.71892741818	127.011749802608	3774.787306062	1539.34586066544	136.115224601697	2285.8212797865	825.859834135365	125	1752.05215883357	1420.28533825462	147	2085.63855349334	1197.66312585128	138.551064943443	2344.9223739432	1859.62293969633	161.283443114002	2667.91735630114	1377.56412604575	137.118459717673	2526.8755652228	1286.49624032988	139.023779221956	1818.49303796312	903.299807517643	126.105732463407	2217.01657255284	1453.84990686107	128	2690.94486998469	306.165960847987	126	843.565400243752	2604.65616310306	134.369862277809	4110.70642954127
361.393659430214	139.337728619357	806.840859686787	1698.27571155878	177.79571018864	2567.15507891863	1065.46303595424	138	2236.94322293951	1824.02698446801	147.036856247461	2656.24635089574	1682.15532563132	127.023779221956	3776.49382645672	1540.0661631192	136.118459717673	2287.65949015184	826.127804443535	125	1752.46134245318	1420.76143807773	147	2086.99125730684	1198.1847490969	138.563094293218	2347.41338245491	1861.26171166195	161.335370293541	2672.42249445424	1378.50891941709	137.113897378801	2530.15360922612	1287.60310431829	139.011749802608	1821.578314224	903.778551174283	126.083730897085	2217.66223949833	1454.95933410006	128	2693.01237202684	306.275726731462	126	843.697026068652	2606.09305905368	134.344941708058	4110.45121376635
361.427003714307	139.391363017655	807.026273443218	1698.27329618754	177.854420875563	2567.63110334438	1065.33821550093	138	2237.85097895509	1824.39916333102	147.041506499712	2657.6965593093	1682.84356719105	127.04072345119	3779.21526032909	1540.84523103706	136.113897378801	2289.95129754264	826.539507081431	125	1753.40935450776	1421.33084312514	147	2088.86749344955	1198.69445238314	138.574582307538	2350.63451727528	1862.76423418654	161.402968196711	2677.56077326579	1379.38185288103	137.101082211157	2533.95128661337	1288.67008652914	139.004650252251	1825.20837999045	904.32217265467	126.061156926116	2218.98108484693	1456.19590267398	128	2696.13937584773	306.393211697251	126	844.054734685549	2607.52834894284	134.314493571776	4110.2079272126
361.482624374287	139.453676350671	807.385534343963	1698.3679091457	177.90796430157	2568.83051254437	1065.30947761438	138	2239.33112033373	1824.81491655193	147.061773758299	2659.8114074611	1683.75766428793	127.061156926116	3782.82346864059	1541.68011428407	136.101082211157	2292.68405108977	827.08072821546	125	1754.88476495653	1421.99189107287	147	2091.23424428473	1199.1302738731	138.583273638428	2354.42290928254	1864.03841067772	161.478153407545	2683.08999270569	1380.13697539431	137.082403674188	2538.09128832559	1289.65272519464	139.001327222897	1829.20784205007	904.860568125654	126.04072345119	2220.83802627369	1457.42741273934	128	2700.04926236577	306.506756605039	126	844.587144923447	2608.78013754912	134.281584934473	4109.94836629736
361.565484043435	139.518099322809	807.892572094612	1698.6234467536	177.954626296559	2570.65339286518	1065.39432706228	138	2241.24131075755	1825.32114098376	147.099340396474	2662.48775791598	1684.83191902591	127.082403674188	3787.04959802357	1542.5404905136	136.082403674188	2295.78285411534	827.712384828547	125	1756.79716094812	1422.71044929177	147	2094.00389315757	1199.44563854865	138.587130414238	2358.59061266489	1865.01839077396	161.554667519964	2688.78015052148	1380.73727606452	137.061156926116	2542.3806323949	1290.50435751544	139	1833.38062413291	905.336496395565	126.023779221956	2223.05748090199	1458.54092147861	128	2704.42086105432	306.60732005927	126	845.236439447463	2609.72327805673	134.249315781388	4109.62361366514
361.678316057199	139.579663333763	808.505560534349	1699.09669792073	177.994022524852	2572.92347857147	1065.59758987067	138	2243.38567577393	1825.94813518744	147.151556599585	2665.54457344905	1685.96427821378	127.09975498826	3791.49233915658	1543.36731880016	136.061156926116	2299.08663511136	828.37234541679	125	1758.97724832028	1423.42209505521	146.998672777103	2097.01981815444	1199.60893510828	138.584605668499	2362.91526679026	1865.6508968499	161.627491142484	2694.36913842537	1381.14957296599	137.04072345119	2546.58477280209	1291.16877110856	139	1837.48581828384	905.712727061801	126.011749802608	2225.43164851921	1459.45564455076	128	2708.90623166155	306.690478551708	126	845.940613179095	2610.30810469553	134.219014909909	4109.1845220257
361.820186915248	139.635316256194	809.176214990425	1699.82186544067	178.027646425685	2575.4503654653	1065.90594584703	138	2245.55720887258	1826.69108330257	147.216039613968	2668.75104541227	1687.03659281698	127.10924712655	3795.65133892001	1544.0906976956	136.04072345119	2302.3508893978	828.988815488002	125	1761.19255289228	1424.05221749833	146.995349747749	2100.05991196459	1199.61295487653	138.573773771993	2367.14813454023	1865.90646578368	161.692250645121	2699.54159745149	1381.35455305652	137.023779221956	2550.42834379504	1291.59184204965	139	1841.23927172338	905.972239672029	126.004650252251	2227.73070137576	1460.12445232788	128	2713.15088774379	306.755530911825	126	846.64037562094	2610.55685836409	134.192781582672	4108.61591730102
361.984906350247	139.684091291949	809.85070807906	1700.79211550513	178.055179450969	2578.04666437075	1066.28443887561	138	2247.54945485733	1827.50033029635	147.285887453312	2671.8345403052	1687.92229508167	127.106709915065	3799.00590657218	1544.63836087917	136.023779221956	2305.29934082039	829.486278020223	125	1763.18232480844	1424.5355272501	146.988250197392	2102.8784920015	1199.46931801405	138.554579606586	2371.01485233331	1865.77459627012	161.744465169544	2703.93244885989	1381.34418552637	137.011749802608	2553.61199610939	1291.72766958668	139	1844.33692801727	906.116154529697	126.001327222897	2229.72053968869	1460.52765307608	128	2716.81426356712	306.803872670298	126	847.277166981086	2610.53437194512	134.169810896261	4107.95238393556
362.16268957001	139.726028206496	810.471755199841	1701.94826492329	178.075098976144	2580.53763997709	1066.6823053255	137.998672777103	2249.17812658427	1828.28893898337	147.354418856816	2674.51106744737	1688.51047378181	127.090118156844	3801.09081733292	1544.96117806912	136.011749802608	2307.67756074595	829.801801046509	125	1764.6970724176	1424.83951835584	146.976220778044	2105.25475539375	1199.2174360748	138.525719358405	2374.25252364596	1865.29551196388	161.77852708526	2707.19196554579	1381.13986472017	137.004650252251	2555.87106250502	1291.56575320739	139	1846.51046768364	906.160117504198	126	2231.18060487531	1460.67445772089	128	2719.60227653309	306.840033782615	126	847.794758699847	2610.33311671873	134.152080849159	4107.27887080109
362.3385289178	139.762192447299	810.97934923891	1703.17571484204	178.084682156298	2582.74797331556	1067.03646497378	137.995349747749	2250.28734285041	1828.94727861029	147.41381311683	2676.52127845252	1688.72721028191	127.060358759967	3801.57355041032	1545.04867928299	136.004650252251	2309.31170296085	829.897859854553	125	1765.53705108659	1424.98165366733	146.95927654881	2107.0381075731	1198.91673546334	138.488047068451	2376.6382605802	1864.55243054789	161.788665448573	2709.05147595016	1380.78212608231	137.001327222897	2557.02402212788	1291.13166135856	139	1847.58131642021	906.125197804869	126	2231.92943454515	1460.5895922859	128	2721.29166277468	306.868375343444	126	848.140014996528	2610.03233095254	134.142588710868	4106.69884394849
362.494018606221	139.790906275847	811.31404275249	1704.31988164317	178.078368354236	2584.49009784874	1067.28271068543	137.988250197392	2250.75436017144	1829.3656117508	147.456566433008	2677.65806025554	1688.53786237959	127.021246748072	3800.31361602814	1544.92458789978	136.001327222897	2310.14768127618	829.765119760273	125	1765.58834774533	1425.01621573428	146.938843073884	2108.17663831247	1198.63924594464	138.442800006152	2378.04091327744	1863.66683316779	161.77167697491	2709.40670413171	1380.3298724023	137.001327222897	2557.02781414425	1290.48855504396	139.001327222897	1847.51007362967	906.036680199509	126	2231.85227866538	1460.3121309655	128	2721.76470627463	306.892940313696	126	848.269133355628	2609.69013991471	134.145504655385	4106.31233817377
362.610199979727	139.810972220655	811.420311977791	1705.21574187402	178.053957044527	2585.55341465529	1067.3704558093	137.976220778044	2250.49138986011	1829.46724340718	147.478327130832	2677.79400057148	1687.95579183421	126.978753251928	3797.36505309497	1544.64369335411	136	2310.24965697912	829.423736491578	125	1764.82853213043	1425.02193464289	146.917596325812	2108.71584775202	1198.46020412911	138.392947139616	2378.44136789333	1862.78034610693	161.726386447246	2708.35162183562	1379.84916935265	137.004650252251	2555.98524027462	1289.72460893935	139.004650252251	1846.4050478841	905.917728996992	126	2230.91394451356	1459.88615140542	128	2721.01713120869	306.916269102915	126	848.150646592045	2609.32630384222	134.163820351944	4106.17167178863
362.671269313515	139.821338090192	811.255903023936	1705.72211106627	178.012017001494	2585.73750228791	1067.27324532306	137.95927654881	2249.45997218921	1829.22804700163	147.477087821313	2676.90597989076	1687.03661034928	126.939641240033	3792.96868449382	1544.28065847112	136	2309.78283359269	828.919949652082	125	1763.32912391141	1425.08203157772	146.898917788843	2108.77852977067	1198.4471374406	138.343014018273	2377.94883567744	1862.02821622817	161.657774788935	2706.18410788762	1379.40351111905	137.011749802608	2554.1383772643	1288.93551971075	139.011749802608	1844.51114139098	905.788996885382	126	2229.17535346635	1459.35864352449	128	2719.16998303362	306.937515850987	126	847.772791111442	2608.93185023592	134.199379601132	4106.27263425015
362.667140251925	139.820910375131	810.798674174819	1705.75436281872	177.957521610852	2584.8792066909	1066.99351068562	137.938843073884	2247.6771483172	1828.68379729676	147.455501067973	2675.0750372121	1685.86616595569	126.909881843156	3787.5041674364	1543.90570179145	136	2308.96366944914	828.31273738615	125	1761.2341484245	1425.25720069335	146.8861026212	2108.52860851346	1198.64597326326	138.298445791465	2376.77794989436	1861.51275642282	161.574582307538	2703.34297654632	1379.0408008151	137.023779221956	2551.80664965972	1288.20349538964	139.023779221956	1842.15052255501	905.662236852488	126	2226.77675097061	1458.76865686615	128	2716.43966545672	306.953299073663	126	847.1482404175	2608.47095439814	134.250521032375	4106.53937968568
362.598176122601	139.811065696255	810.056591766058	1705.30456432186	177.898917788843	2582.90566495983	1066.5659205065	137.917596325812	2245.22933871318	1827.92653362721	147.418913801818	2672.48167671927	1684.55283985816	126.893290084935	3781.41538871885	1543.57732569136	136	2307.99834754773	827.669781964181	125	1758.72813656928	1425.58061903569	146.881540282327	2108.12297446382	1199.07977437927	138.265711029073	2375.20912715594	1861.29053274003	161.489920365608	2700.31484800718	1378.791907139	137.04072345119	2549.32046332557	1287.58686346715	139.04072345119	1839.65297480243	905.541229819973	126	2223.92086627863	1458.14423520949	128	2713.10923148987	306.957166277391	126	846.311799830691	2607.89563212885	134.3112584558	4106.84496574654
362.474983112116	139.794382965743	809.067175156294	1704.43898892473	177.846177336159	2579.85941599172	1066.04420304838	137.898917788843	2242.26106398871	1827.07676322865	147.373895559934	2669.36609001064	1683.21442935672	126.89075287345	3775.17426131527	1543.33215875888	136	2307.05253012979	827.054253254046	125	1756.01803117162	1426.05314042246	146.8861026212	2107.69523870518	1199.74804871145	138.249119340425	2373.53370312354	1861.37106320783	161.415131939789	2697.53437181841	1378.67102850962	137.061156926116	2546.95020301458	1287.11472701315	139.061156926116	1837.2892598833	905.422902592179	126	2220.83837236498	1457.50164032141	128	2709.48036828881	306.942093445429	126	845.316978192541	2607.16177359897	134.372403033636	4107.03795075779
362.316859967263	139.773942249907	807.896236232302	1703.28814038412	177.807039131819	2575.93034630439	1065.49450300444	137.8861026212	2238.97084999125	1826.25793241313	147.326610904502	2666.00029288972	1681.96338258845	126.90024501174	3769.21779978225	1543.18316978775	136	2306.21922665147	826.521906705537	125	1753.3035792146	1426.65257422886	146.898917788843	2107.3296787546	1200.62452895297	138.251687551529	2371.99833375404	1861.71280109137	161.360667479193	2695.29688767933	1378.67575209327	137.082403674188	2544.86195002492	1286.78828706881	139.082403674188	1835.22712937341	905.299031017946	126	2217.75448438961	1456.84686084541	128	2705.8334806318	306.901369994239	126	844.230636751799	2606.24411104574	134.424357668451	4106.97995227601
362.147595920257	139.750980990806	806.633230166461	1702.01942995718	177.785444650335	2571.44303657831	1064.98301212359	137.881540282327	2235.58860266494	1825.575873118	147.281499058922	2662.64920210759	1680.90459405751	126.917596325812	3763.93312614105	1543.13252348335	136	2305.53919786864	826.116404155858	125	1750.77238123076	1427.35323392037	146.917596325812	2107.08157687101	1201.6704030563	138.273329336355	2370.76642990909	1862.2530310735	161.330732459144	2693.71731395584	1378.79858066313	137.101082211157	2543.10790332395	1286.59777621782	139.101082211157	1833.52297357787	905.162226719419	126	2214.86166578182	1456.18361994214	128	2702.39889371828	306.832833901026	126	843.121904560242	2605.15005546639	134.458300740743	4106.57529581443
361.992106231836	139.727375713333	805.375279852164	1700.80437062674	177.780370157792	2566.80524976238	1064.56452485786	137.8861026212	2232.33929154883	1825.09542872217	147.241936614291	2659.53246550038	1680.11539844672	126.938843073884	3759.61631269041	1543.1701782436	136	2305.01150832467	825.866768027965	125	1748.58015370365	1428.13013783075	146.938843073884	2106.98139382091	1202.83798212962	138.310827681826	2369.90988712995	1862.92390207105	161.323904707331	2692.75932630644	1379.03227416904	137.1138973788	2541.66226599015	1286.53176965135	139.113897378801	1832.15703221092	905.009159259106	126	2212.31585092176	1455.52154454968	128	2699.36388044682	306.739463472751	126	842.063475112883	2603.92340832328	134.469381600652	4105.80868857338
361.870676780443	139.702878372519	804.215591981615	1699.7886698988	177.784308119444	2562.44957215095	1064.27413627882	137.898917788843	2229.41323242039	1824.83381129501	147.209461254271	2656.80764603304	1679.63799864218	126.95927654881	3756.44549877967	1543.27920800197	136	2304.61568821562	825.782992637311	125	1746.83816850598	1428.962288114	146.95927654881	2107.04316357193	1204.07770369198	138.359605776494	2369.41578877391	1863.67175135115	161.335282380163	2692.28891491345	1379.37325061235	137.118459717673	2540.46581687649	1286.58731690118	139.118459717673	1831.07891950096	904.842409821567	126	2210.22623115212	1454.878687112	128	2696.87216039926	306.629697589276	126	841.123109803596	2602.63560242237	134.455753159863	4104.72957112876
361.795924846892	139.678039347749	803.236691574002	1699.07350622669	177.787286474299	2558.78646172861	1064.12415334926	137.917596325812	2226.96008176386	1824.76599278502	147.185337219873	2654.59068811086	1679.47256937295	126.976220778044	3754.46800246492	1543.43476193334	136	2304.33276859331	825.856463603154	125	1745.60570918653	1429.82169036791	146.976220778044	2107.26516636212	1205.33097881012	138.411534634721	2369.20749287486	1864.44969725988	161.356355183752	2692.13776345148	1379.80923640458	137.113897378801	2539.46683903866	1286.764712526	139.113897378801	1830.25199381771	904.66970124292	126	2208.66352170714	1454.28336676587	128	2695.03762743157	306.51833268436	126	840.360636620837	2601.37616161617	134.420510389524	4103.43760287143
361.77360031593	139.653476811233	802.496866257938	1698.70650116093	177.778511967632	2556.13221897427	1064.10473255248	137.938843073884	2225.06772846864	1824.83588436825	147.170756327214	2652.9514843487	1679.57822364467	126.988250197392	3753.60235948929	1543.60498980769	136	2304.15374049841	826.058008466443	125	1744.8854283274	1430.66362626238	146.988250197392	2107.620459189	1206.53175984066	138.46147854312	2369.18724772538	1865.22000783258	161.380402091829	2692.17289407476	1380.32069653617	137.101082211157	2538.65754012163	1287.06452977767	139.101082211157	1829.68435132268	904.507759315451	126	2207.6695203898	1453.77517958685	128	2693.95484958055	306.421917880908	126	839.82580026494	2600.24376659459	134.369504244574	4102.0629818341
361.801863711741	139.63223006316	802.03229112181	1698.69337386232	177.751757449735	2554.71013686627	1064.19324400763	137.95927654881	2223.78527959544	1824.98216839219	147.167959713357	2651.96047391572	1679.88235864507	126.995349747749	3753.6370728777	1543.75532305068	136	2304.074395509	826.342985153094	125	1744.61821879559	1431.42041349824	146.995349747749	2108.0445459771	1207.59768379906	138.503521489063	2369.25201751962	1865.92712255696	161.402439277906	2692.30485025444	1380.86653431937	137.083730897085	2538.06336681651	1287.46763681535	139.083730897085	1829.41700051331	904.372800308633	126	2207.2379083382	1453.38915671632	128	2693.66288674984	306.355035037683	126	839.543986192613	2599.31585475793	134.309931232903	4100.69908978607
361.87375689284	139.616353364885	801.854420592093	1699.00907936953	177.704732614337	2554.6293011701	1064.36344304821	137.976220778044	2223.1262789787	1825.15592551339	147.177967549659	2651.68775436321	1680.30483366308	126.998672777103	3754.30998720895	1543.86453826502	136	2304.12182428046	826.660411324227	125	1744.71307648214	1432.01740836397	146.998672777103	2108.45774123378	1208.44212807967	138.534123413984	2369.33006937462	1866.50336690993	161.42155325808	2692.50421264869	1381.39280009659	137.065807178367	2537.74339049135	1287.93676422687	139.065807178367	1829.5148468284	904.281069729983	126	2207.33098763882	1453.14797393776	128	2694.14719923819	306.327143909592	126	839.516191956928	2598.63885052314	134.250096792083	4099.41522380873
361.979129215612	139.608109963424	801.95175747833	1699.60531371436	177.641633533025	2555.88828198539	1064.58980372864	137.988250197392	2223.07446009985	1825.32813438163	147.20201132925	2652.19520200934	1680.77464641763	127	3755.33805581388	1543.93239069151	136	2304.34381957526	826.962605929644	125	1745.05546024289	1432.38877970753	147	2108.77527337534	1208.98868077063	138.553252383689	2369.38583469873	1866.88158285521	161.440770141163	2692.77840041386	1381.84633931642	137.052473253798	2537.76118769091	1288.42189849299	139.052473253798	1830.03301970928	904.244758215479	126	2207.87462046928	1453.05622180384	128	2695.3228316576	306.339962205722	126	839.715603545137	2598.22388157438	134.196127329702	4098.23984540306
362.107857852454	139.607588772763	802.292088020325	1700.42238554223	177.572731124634	2558.37474705885	1064.85484017074	137.995349747749	2223.58779909348	1825.49653229082	147.238491613027	2653.51804901591	1681.24328546233	127	3756.49395291593	1543.98237651576	136	2304.82999957126	827.210982310118	125	1745.54038050266	1432.49792127175	147	2108.95235090956	1209.19027746903	138.562046687061	2369.43108096676	1867.01937171149	161.463222140223	2693.1731570354	1382.19142510215	137.047558443912	2538.18100370723	1288.87350743554	139.047558443912	1831.00999171584	904.266459947154	126	2208.76251708505	1453.09308033251	128	2697.03296271881	306.386388856344	126	840.088032979538	2598.03611319965	134.15301129058	4097.17272157974
362.249315781388	139.61330439005	802.827751123419	1701.3848574502	177.50992306656	2561.87250628733	1065.14657103178	137.998672777103	2224.59777146089	1825.67308400546	147.284582948091	2655.64212876577	1681.69338846521	127	3757.63279922785	1544.06027072945	136	2305.69136824095	827.385017367245	125	1746.08351087462	1432.35413344584	147	2109.00034802799	1209.05145246392	138.56203169753	2369.52034335114	1866.93049475069	161.491828258687	2693.76519035732	1382.42744834754	137.052473253798	2539.05787139169	1289.26502614799	139.052473253798	1832.45997583649	904.339550050311	126	2209.87180095008	1453.21923135232	128	2699.07334787992	306.453830011214	126	840.560786032019	2598.00895020648	134.1239101739	4096.21302630925
362.394069214826	139.62171400785	803.495372939866	1702.39721799204	177.463857923941	2566.05446131952	1065.45227280763	138	2225.99387408743	1825.86600120438	147.333172108744	2658.46991803496	1682.13180734997	127	3758.69826615775	1544.21598946015	136	2307.04021387749	827.480517478367	125	1746.62937770347	1432.01345089693	147	2108.99613964598	1208.62902654272	138.556422457922	2369.74550223054	1866.68499140408	161.525444431375	2694.67215805435	1382.58576234321	137.065807178367	2540.44102757959	1289.59454526976	139.065807178367	1834.38355191341	904.455092043795	126.001327222897	2211.08166926176	1453.39041721162	128	2701.22664034187	306.52781721197	126	841.052925885696	2598.06813130727	134.107857852454	4095.38041841099
362.534123413983	139.627043143483	804.219621146115	1703.34629522369	177.441024132938	2570.49587117982	1065.75751391515	138	2227.62311602223	1826.07222972403	147.376005610156	2661.81025232912	1682.57795225593	127	3759.7004869103	1544.4885762002	136	2308.95216542538	827.50737199011	125	1747.14753433748	1431.565706838	147	2109.06647953443	1208.03619959004	138.546414691193	2370.2154902895	1866.41639729674	161.558708668176	2696.03764393396	1382.73244543233	137.083730897085	2542.3611832342	1289.89471289434	139.083730897085	1836.76331106218	904.604386866638	126.004650252251	2212.28059042324	1453.57167915552	127.998672777103	2703.28923746362	306.595902872447	126	841.483625838838	2598.15319164906	134.103207600203	4094.72286030364
362.662704657926	139.625454421863	804.918632798581	1704.11249173185	177.443050523158	2574.70806903289	1066.04750436787	138	2229.29512872288	1826.27681995161	147.404355037072	2665.39157163946	1683.0601726207	127	3760.67999651287	1544.89828246541	136	2311.43415959196	827.486834473724	125	1747.62370523973	1431.12463552542	147	2109.35960858872	1207.41686148207	138.532906822141	2371.0383033464	1866.27500198716	161.583270717457	2698.0134269953	1382.93848954816	137.101082211157	2544.82471013658	1290.20811929512	139.101082211157	1839.56165955626	904.785778369256	126.011749802608	2213.38018668794	1453.74981972975	127.995349747749	2705.09846229456	306.652002461475	126	841.784361798307	2598.24153901261	134.106182896144	4094.30912017188
362.774209448794	139.611970311521	805.511604584153	1704.5774793449	177.46454936312	2578.18352090541	1066.30207289955	138	2230.79354661593	1826.44348787649	147.411280642946	2668.88281883683	1683.59783678023	127	3761.64355481233	1545.43276947388	136	2314.38871898023	827.442876523663	125	1748.04059921672	1430.79777445937	147	2109.99542305999	1206.92343870357	138.517715852177	2372.29001596106	1866.39639476267	161.591159144597	2700.7047364025	1383.26372846962	137.1138973788	2547.78110431124	1290.57051529629	139.113897378801	1842.69773000464	905.008735948139	126.023779221956	2214.32804159414	1453.93680110885	127.988250197392	2706.56154803934	306.697018131681	126	841.912201373373	2598.36140455795	134.114159236662	4094.22234747251
362.867035702693	139.586184983285	805.92767705765	1704.65867887751	177.49552535184	2580.46949476324	1066.50625925119	138	2231.90572847177	1826.53938963208	147.394596233746	2671.94745069747	1684.19882925387	127	3762.52034854555	1546.04933607417	136	2317.59740946463	827.397239200742	125	1748.3582497208	1430.67008666962	147	2111.01941583433	1206.68691626637	138.49966165434	2373.9876298284	1866.85940306119	161.57511406406	2704.116424436	1383.73394256631	137.118459717673	2551.10037335342	1290.98728451578	139.118459717673	1846.02321555043	905.285188610989	126.04072345119	2215.09657920066	1454.15869863192	127.976220778044	2707.64290737615	306.737886206423	126	841.851611007236	2598.57070797151	134.123197883302	4094.51602052131
362.941549271054	139.548801716904	806.119633667573	1704.3236871108	177.523700834272	2581.25347827726	1066.64934855346	138	2232.4614526638	1826.53362208424	147.355484221852	2674.30075910649	1684.85498479637	127	3763.13838255024	1546.68004304546	136	2320.73274280465	827.365282379501	125	1748.50527381621	1430.78188188865	147	2112.36840711557	1206.78953346314	138.479882153058	2376.06559938441	1867.65791450631	161.5336000574	2708.10397280777	1384.32970410026	137.113897378801	2554.55429230909	1291.42067958231	139.113897378801	1849.30833550588	905.629293774427	126.061156926116	2215.69176245075	1454.44559064549	127.95927654881	2708.37252174821	306.784117427438	126	841.622053520549	2598.94603063964	134.131536743178	4095.22111690727
362.999216951478	139.50438117256	806.067307135411	1703.60493565415	177.537469298956	2580.41404085544	1066.72745681592	138	2232.35842189468	1826.40714734047	147.29991573803	2675.75268764721	1685.54646530617	127	3763.26722546905	1547.2428725608	136	2323.41001846832	827.353144366926	125	1748.39305445869	1431.12480547482	147	2113.87586639901	1207.2485986041	138.458693859882	2378.36013050934	1868.69548924331	161.469643458514	2712.34639479358	1384.9860678086	137.101082211157	2557.81122038914	1291.79104520629	139.101082211157	1852.2434087992	906.042057125738	126.082403674188	2216.12866455942	1454.80740259023	127.938843073884	2708.80624104641	306.843545608041	126	841.266234316063	2599.53842746681	134.139003823653	4096.31183805525
363.043429648361	139.459899110869	805.787166772578	1702.60570118669	177.528674995583	2578.0701324348	1066.7498988743	138	2231.59705355101	1826.16208905223	147.23728636204	2676.25189790398	1686.24656909398	127.001327222897	3762.65621034076	1547.65772830689	136	2325.24500939044	827.361267293864	125	1747.92786495824	1431.6427686974	147	2115.28923312378	1208.016743522	138.438232929679	2380.62986733367	1869.80998677035	161.392947139616	2716.38194634079	1385.61074758461	137.082403674188	2560.48328678214	1291.99828050186	139.082403674188	1854.47732586609	906.508085738451	126.101082211157	2216.40970486901	1455.22190955464	127.917596325812	2708.98593270101	306.917067269064	126	840.836353922414	2600.34637286144	134.146455914597	4097.70666504299
363.076426199041	139.421117676932	805.321380123503	1701.47774860877	177.494465327829	2574.54660143246	1066.73531180831	138	2230.26119468121	1825.81552634986	147.176640326762	2675.86231011924	1686.92757742211	127.004650252251	3761.11942364555	1547.8603244981	136	2325.93450330811	827.384128758291	125	1747.04494455595	1432.24537198311	147	2116.32680203835	1208.9934603122	138.421636364284	2382.58644409594	1870.81286384381	161.314843343015	2719.68394493956	1386.10623460585	137.061156926116	2562.18896308998	1291.94948894949	139.061156926116	1855.68104349019	906.998949890534	126.113897378801	2216.5220184252	1455.64185099178	127.898917788843	2708.9257623994	307	126	840.381162044489	2601.31323163288	134.155310402913	4099.29433744569
363.09975498826	139.393471251247	804.731071540677	1700.38959593798	177.436646907833	2570.32472399379	1066.70648943577	138	2228.50532939646	1825.3873583883	147.128034428316	2674.74217771577	1687.5621335638	127.011749802608	3758.60601353258	1547.8092759838	136	2325.32467596317	827.413324974246	125	1745.73333530694	1432.82497807687	147	2116.74216365614	1210.04748077678	138.412605028127	2383.94678771175	1871.53536349386	161.248242550266	2721.77849834769	1386.39748491467	137.04072345119	2562.64101505052	1291.58834871854	139.04072345119	1855.62595045172	907.477818126197	126.118459717673	2216.43339962636	1456.00478457695	127.886102621199	2708.61035466464	307.081605508039	126	839.932178192637	2602.32457538202	134.167339822261	4100.94037349969
363.115224601697	139.380396263569	804.086163361688	1699.49289153756	177.360558714395	2565.95489648733	1066.68872999583	138	2226.52450356026	1824.89865158631	147.097582399603	2673.10547300705	1688.13126172219	127.023779221956	3755.23790334928	1547.49427456494	136	2323.4504026677	827.440751134617	125	1744.0514130805	1433.27443722336	147	2116.38233265025	1211.04764317202	138.415142239611	2384.48251510128	1871.88275438596	161.20456652081	2722.36517314	1386.45701566951	137.023779221956	2561.71837847042	1290.92338413892	139.023779221956	1854.24989724124	907.912144930529	126.113897378801	2216.10319026274	1456.25968926341	127.881540282327	2708.00923511311	307.150476916811	126	839.493427618976	2603.2331210441	134.182529113536	4102.50032894637
363.123109969924	139.384525325159	803.447448428111	1698.89220701142	177.275521583775	2561.98774543289	1066.69656830632	138	2224.5109424836	1824.36305232689	147.089329501259	2671.19495560432	1688.62406774827	127.04072345119	3751.32159687043	1546.9312623111	136	2320.54293108327	827.459645119094	125	1742.12687826217	1433.5064550821	147	2115.23145726115	1211.88531322529	138.431273195699	2384.07464804211	1871.86323964897	161.188760580458	2721.43465067594	1386.31912498693	137.011749802608	2559.53302324874	1290.03639235228	139.011749802608	1851.7136910773	908.283536915918	126.101082211157	2215.5170468045	1456.39284283739	127.8861026212	2707.13653560822	307.196828071909	126	839.046924549909	2603.89073235142	134.198833526873	4103.85988151466
363.124319958512	139.406822331271	802.854315451151	1698.63869667276	177.188934303745	2558.91671912239	1066.73384241696	138	2222.62032621766	1823.80264596805	147.102663425828	2669.26799486094	1689.04521757407	127.062484149013	3747.29662116378	1546.15986596423	136	2316.98678297843	827.463941888977	125	1740.13418862297	1433.468795746	147	2113.41846714576	1212.48762746603	138.4602778439	2382.74243354717	1871.59418109076	161.202794377772	2719.32530332315	1386.07309100983	137.004650252251	2556.43845945876	1289.07047953683	139.004650252251	1848.40151290495	908.595230202602	126.082403674188	2214.69539472492	1456.44392783862	127.898917788843	2706.07806683725	307.215957041615	126	838.551868479443	2604.16552015772	134.213940417367	4104.92157952782
363.117556735068	139.446130646185	802.317930473298	1698.74911013215	177.109185075351	2557.19595119474	1066.79113511621	138	2220.96660220864	1823.26824291985	147.133754852776	2667.62986585778	1689.42254881708	127.087053926439	3743.67488900808	1545.23695570906	136	2313.25180768355	827.453393353068	125	1738.26802905113	1433.15773978147	147	2111.2089191973	1212.82739564677	138.498604037926	2380.64513736586	1871.28585483911	161.242719662813	2716.71332027962	1385.85104799952	137.001327222897	2552.99286949336	1288.20733396076	139.001327222897	1844.87690813371	908.867794992506	126.061156926116	2213.71319790479	1456.50430288813	127.917596325812	2705.02022280114	307.207674891913	126	837.959745236168	2603.96238366402	134.224280094458	4105.62126969232
363.098095149578	139.499295339162	801.808737154774	1699.23347468271	177.044160945506	2557.20851779312	1066.84868799645	138	2219.58395980479	1822.86098733733	147.175316162778	2666.60252069562	1689.81074665774	127.114159236662	3740.96112209879	1544.2295827166	136	2309.81034902177	827.431792337902	125	1736.71308100252	1432.62429271963	147	2108.96737015592	1212.92050769827	138.540525129423	2378.07192494023	1871.2036997878	161.30185979311	2714.52275761785	1385.80361529634	137	2549.88300436726	1287.63235661915	139	1841.79734955806	909.13905213389	126.04072345119	2212.70419932222	1456.70658859327	127.938843073884	2704.25210768469	307.176181187301	126	837.232217444156	2603.24248854278	134.228056615462	4105.95191894166
363.057102599617	139.560981322026	801.263454024604	1700.12168477312	177.002727103602	2559.29532159499	1066.88094011562	138	2218.44410738505	1822.73627999041	147.220080274945	2666.532136877	1690.28000193331	127.142326853007	3739.5238831092	1543.19612245208	136	2307.025969357	827.404755380712	125	1735.59199463914	1431.96324072466	146.998672777103	2107.07824188886	1212.8160215968	138.579149384012	2375.38023100828	1871.61280666258	161.371093721241	2713.74727139021	1386.06640623697	137	2547.79299394339	1287.4953628656	139	1839.78780273889	909.445309291513	126.023779221956	2211.83545769995	1457.18762123045	127.95927654881	2704.11581314733	307.125833322549	126	836.355056960418	2602.00758548283	134.224642613818	4105.94204600914
362.980336174112	139.621177340423	800.595518774492	1701.47003606566	176.993230158138	2563.67927395786	1066.86387366926	138	2217.45629854774	1823.08221503474	147.26026538002	2667.71052602327	1690.89614459982	127.170932971471	3739.53722518822	1542.16933447286	136	2305.09569972002	827.372965704696	125	1734.94886982316	1431.28561354651	146.995349747749	2105.87881761993	1212.58567394965	138.606506786124	2372.93474327763	1872.72201007321	161.440420369924	2715.24621662477	1386.73730283537	137	2547.27738294763	1287.88379616054	139	1839.32398073891	909.815418320186	126.011749802608	2211.29505422556	1458.05803780558	127.976220778044	2704.96807264058	307.060373877594	126	835.349961689587	2600.30029552604	134.217104979004	4105.67307139003
362.853087853231	139.669781490607	799.713906678627	1703.32736168275	177.02132701656	2570.37054635059	1066.77594699408	138	2216.48319802804	1824.0571726717	147.288951683717	2670.28043005595	1691.69279831511	127.198833526873	3740.89334917295	1541.14160799329	136	2303.98720442825	827.325260786139	125	1734.71374845244	1430.67700303418	146.986922974495	2105.55450619365	1212.31012688461	138.61583751525	2371.0405822133	1874.63805603332	161.500345852608	2719.54481135523	1387.85800356615	137	2548.65363236838	1288.80931743997	139	1840.63910027814	910.263982777081	126.004650252251	2211.26431923428	1459.37897431557	127.988250197392	2707.11427794155	306.980945499347	126	834.276469010324	2598.20137852463	134.20894006361	4105.25866222218
