Light	Light	Light	Light	Light	Light	Light	Light	Light	Light	Light	Light	Light	Light	Light	Light	Light	Light	Light	Light	Light	Light	Light	Light	Light	Light	Light	Light	Light	Light	Light	Light	Light	Light	Light	Light	Light	Light	Light	Light	Light	Light	Light	Light	Light	Light	Light	Light
Optode1-730nm	Optode1-Ambient	Optode1-850nm	Optode2-730nm	Optode2-Ambient	Optode2-850nm	Optode3-730nm	Optode3-Ambient	Optode3-850nm	Optode4-730nm	Optode4-Ambient	Optode4-850nm	Optode5-730nm	Optode5-Ambient	Optode5-850nm	Optode6-730nm	Optode6-Ambient	Optode6-850nm	Optode7-730nm	Optode7-Ambient	Optode7-850nm	Optode8-730nm	Optode8-Ambient	Optode8-850nm	Optode9-730nm	Optode9-Ambient	Optode9-850nm	Optode10-730nm	Optode10-Ambient	Optode10-850nm	Optode11-730nm	Optode11-Ambient	Optode11-850nm	Optode12-730nm	Optode12-Ambient	Optode12-850nm	Optode13-730nm	Optode13-Ambient	Optode13-850nm	Optode14-730nm	Optode14-Ambient	Optode14-850nm	Optode15-730nm	Optode15-Ambient	Optode15-850nm	Optode16-730nm	Optode16-Ambient	Optode16-850nm
361.511201709602	139.57510099489	816.389388407637	1697.52870177168	178.353889938011	2604.03921853989	1060.47355415162	138.073173927611	2237.14545880508	1771.65688107844	147.729106892582	2623.04115684028	1710.15893845005	127.082403674188	3855.73898989931	1541.54217276964	136.484461647385	2328.20846492099	847.682971613266	125	1811.02629710014	1411.58605798733	148	2088.47273549036	1195.22176009078	138.34985381817	2327.17606214211	1859.57540544151	162.726831538959	2669.68347460995	1376.47633736017	137.064502673146	2550.23019738193	1196.08504200078	139.390315411498	1732.8880067287	927.634438676776	126	2278.30808142727	1358.27592900115	128	2569.73896390616	304.755872845803	126	837.46489439205	2684.9211972145	134.623732531983	4108.17401667948
361.452343895819	139.593312058493	816.067940560372	1695.63558648259	178.125405607488	2599.03713682906	1060.16647169808	138.094680495717	2236.41192415895	1771.40608769725	147.730698742687	2622.21064353405	1709.80133217334	127.061156926116	3854.46543787839	1541.21299982594	136.420764381298	2327.65157663554	847.643112393802	125	1810.62108926966	1412.42586114089	148	2089.64576983494	1195.21500019224	138.320558960301	2328.28767184129	1859.55770355501	162.717973922157	2670.68983828881	1375.914643266	137.035529024564	2550.74203328317	1194.84993149682	139.323549733009	1731.8235482268	927.666911666897	126	2279.63730748082	1358.67490398706	128	2571.6014589023	304.666947522092	126	836.828519132931	2683.19967349762	134.54265051847	4107.8081848009
361.366013098997	139.604074643472	815.635511920336	1693.33305284068	177.887167986235	2593.84540425927	1059.80993578378	138.102147576192	2235.65080217809	1771.006183307	147.733179243998	2621.38711838695	1709.46380017005	127.04072345119	3853.67880876994	1541.05414932163	136.362928805848	2327.63906319928	847.551206281501	125	1810.24982984143	1413.52524249991	148	2091.41873347189	1195.36045063364	138.300551521748	2329.60258451273	1860.05830677082	162.721295272823	2672.23790490307	1375.57544362308	137.016400054859	2551.45906059496	1193.77426268364	139.26649128472	1730.86141741532	927.752407096341	126	2280.40693696678	1358.96067931827	128	2572.37696289241	304.517785410324	126	835.591363360375	2680.84287547833	134.471760585564	4107.16329991862
361.245454184722	139.607030142708	815.076397188408	1690.64518305244	177.649863865317	2588.54295175097	1059.38809049111	138.096431958906	2234.80276517664	1770.38511665971	147.733218798718	2620.3987397448	1709.15711603578	127.023779221956	3853.37782585342	1541.01722657379	136.310024708503	2328.0164587586	847.423376327874	125	1809.91900458921	1414.86444814151	148	2093.74235019965	1195.65490355886	138.291887646135	2330.944809657	1861.01556064913	162.73667865157	2674.06598553127	1375.44039756315	137.005977475148	2552.1952342919	1192.8718690509	139.227117774103	1729.96215428079	927.872995248292	126	2280.44426394923	1359.08794812131	128	2571.81162407107	304.319035059228	126	833.80838516455	2677.96733664521	134.413926688802	4106.20683803621
361.089659792378	139.602928605968	814.388091360572	1687.67080500545	177.42576996701	2583.26863508833	1058.89323755674	138.081076451291	2233.80404527543	1769.49488853239	147.728575787377	2619.07088841755	1708.86099453277	127.011749802608	3853.40089529207	1541.01615218718	136.261048428542	2328.50367053237	847.265155562614	125	1809.59306808285	1416.36106099612	147.998672777103	2096.41100337228	1196.03351030099	138.294816952926	2332.02940190976	1862.23013840754	162.761648272924	2675.65659339246	1375.43470511716	137.001327222897	2552.63614294241	1192.107972544	139.207091384014	1728.97419365285	927.980652483124	126	2279.6062100617	1358.97798151641	128	2569.73571113743	304.084140681697	126	831.607689993939	2674.71704941653	134.370116269583	4104.93979923652
360.903179659556	139.592475026638	813.5848395431	1684.57615182175	177.227473107564	2578.22172707538	1058.32984680974	138.061156926116	2232.60449073796	1768.32250297339	147.716912219458	2617.27286730231	1708.52558534375	127.004650252251	3853.45145613982	1540.94996941126	136.214028330745	2328.76585080994	847.072976286871	125	1809.20022204587	1417.87738561353	147.995349747749	2099.09091177345	1196.38222753943	138.309387058528	2332.53053577045	1863.40685016779	162.790626659107	2676.36131229149	1375.44822811001	137	2552.42992163557	1191.41888004956	139.206549909413	1727.69286838676	928.007307677195	126	2277.81433009755	1358.53484024274	128	2566.0980547186	303.827651892254	126	829.170134851064	2671.24951174402	134.339693492228	4103.41794568377
360.696478744532	139.57617408807	812.696612781423	1681.57800271372	177.066009418765	2573.64675835432	1057.7167650926	138.04072345119	2231.18168926891	1766.90452475219	147.694721719121	2614.95679631729	1708.08936890748	127.001327222897	3853.16055431402	1540.72986475414	136.16821661242	2328.49815515443	846.834506250223	125	1808.64804985933	1419.24302678531	147.986922974495	2101.38152619031	1196.56392829235	138.332500466271	2332.13948654199	1864.21973736339	162.815902089646	2675.53801412229	1375.36646125004	137	2551.26679991356	1190.73593794669	139.221123143501	1725.9107666055	927.876116312184	126	2275.06625273098	1357.66364923464	128	2560.97249864911	303.563897266542	126	826.695867208531	2667.7037187272	134.319237299626	4101.73427379346
360.483254092533	139.553885246437	811.765532632108	1678.90658354119	176.952112039964	2569.79513831272	1057.08340698802	138.023779221956	2229.54906386214	1765.31760466079	147.662067007951	2612.17188934476	1707.49058014934	127	3852.15087960369	1540.29707461327	136.124454348275	2327.48810837494	846.532015339087	125	1807.83912041469	1420.28013378792	147.970243302896	2102.88600069452	1196.44593705052	138.360237864247	2330.64769599368	1864.38016666117	162.828981814925	2672.72218548339	1375.09682917755	137	2548.9678121213	1190.00290695179	139.243001979326	1723.48404824848	927.521748179373	126.001327222897	2271.45744745635	1356.29726961292	128	2554.57383730476	303.305626014291	126	824.373868122356	2664.19614272171	134.306940819334	4100.01200047783
360.279568310225	139.525172680722	810.835051976414	1676.77048351424	176.892706577037	2566.87076536428	1056.46957023803	138.011749802608	2227.74611775444	1763.67454654345	147.619605774258	2609.04751772873	1706.68826778019	127	3850.12451186612	1539.63754585164	136.084936148072	2325.65999411002	846.147553135033	125	1806.69419930571	1420.83764366714	147.941549271054	2103.28852757947	1195.92979635562	138.386969664469	2327.98368139338	1863.69209932234	162.822289349405	2667.73602884008	1374.58676615108	137	2545.51320785831	1189.18825597241	139.264648571327	1720.36153260272	926.903757457122	126.004650252251	2267.18355215319	1354.41889767025	128	2547.25018284557	303.063551413933	126	822.357416646435	2660.81929151699	134.300296508888	4098.38860908263
360.100493141037	139.491397622655	809.94508405137	1675.32168504401	176.89137935414	2564.99907155612	1055.9197440078	138.004650252251	2225.84272268104	1762.1063286964	147.569498778005	2605.77947283134	1705.6812518557	127	3846.90778613207	1538.78664738967	136.052473253798	2323.0723893812	845.671834256056	125	1805.16052421404	1420.82340823741	147.897336574172	2102.40172828915	1194.96712015492	138.40917610532	2324.22440772876	1862.08678612671	162.790805944615	2660.73530592775	1373.82952769913	137	2541.04406360929	1188.28639689614	139.278704727177	1716.60280472634	926.018116500445	126.011749802608	2262.52428301157	1352.07322495233	128	2539.45796856342	302.84653266962	126	820.744873156516	2657.63883215792	134.298443288156	4096.98702106561
359.95738297347	139.454824618326	809.129275041415	1674.62741386307	176.946134564816	2564.21091719706	1055.47514545631	138.001327222897	2223.93371953372	1760.73694076432	147.514654321545	2602.6015481215	1704.51545318427	127.001327222897	3842.52440773075	1537.81956243913	136.028429474207	2319.9095632384	845.107247657736	125	1803.24383622677	1420.22025857453	147.836693597807	2100.21410309983	1193.57369873768	138.423113621331	2319.58531331447	1859.63857370964	162.732158774707	2652.18977578853	1372.86546845996	137	2535.83073262834	1187.32128549904	139.280698854946	1712.36998682901	924.903284421582	126.023779221956	2257.81570077716	1349.37319507898	128	2531.72146717235	302.659275000872	126	819.578545067978	2654.71611910828	134.302041127076	4095.89299851802
359.859080638378	139.417771929902	808.411970144007	1674.67380351008	177.048282141009	2564.44207821593	1055.17319888003	138	2222.13099535292	1759.67527814331	147.456820424783	2599.75072006141	1703.29009546569	127.004650252251	3837.20741679986	1536.84412442364	136.013077025505	2316.43834357145	844.477734042796	125	1801.01374365602	1419.09783878183	147.761508386973	2096.88826239984	1191.8226113249	138.427963235515	2314.38589622188	1856.53930170107	162.649348015681	2642.7991564975	1371.7695061975	137	2530.2251502968	1186.33472136874	139.268518208791	1707.9070990598	923.635908405174	126.04072345119	2253.40150655735	1346.49039633148	128	2524.56415527823	302.504566257504	126	818.846778219733	2652.12358533891	134.310739768448	4095.13083238689
359.806962358901	139.385590690195	807.809573931614	1675.3643153441	177.183312162058	2565.55944155192	1055.03815471462	138	2220.56182221649	1758.98910829391	147.398291752016	2597.44363969499	1702.13881430292	127.011749802608	3831.36781102993	1535.97090163219	136.004650252251	2312.94749005599	843.822193846148	125	1798.60273507618	1417.5928405845	147.676712124852	2092.72785047192	1189.82674414103	138.42347614069	2308.97705987733	1853.05372795366	162.547480056228	2633.33387540641	1370.63181352094	137	2524.58006338194	1185.37736323364	139.243321150786	1703.48495557638	922.317369850697	126.061156926116	2249.59254998895	1343.62742251363	128	2518.44618112914	302.382521652616	126	818.499611409985	2649.94289844046	134.323415343246	4094.67633435128
359.798452769009	139.361603620778	807.34047744035	1676.55616310723	177.33291228871	2567.41006533923	1055.08624744011	138	2219.37652534361	1758.71002049601	147.338889763857	2595.87310675461	1701.20634828866	127.023779221956	3825.54147961587	1535.29103804456	136.001327222897	2309.70153553169	843.192350556341	125	1796.19509895216	1415.88367711857	147.590196544528	2088.12853148823	1187.72252708429	138.41101344406	2303.69651295022	1849.4720304872	162.436119888913	2624.49720208369	1369.5433101837	137	2519.20108673547	1184.49868580232	139.208050855597	1699.35837772258	921.056524960747	126.082403674188	2246.6090572057	1340.9887805655	128	2513.68563631224	302.291170014512	126	818.462847334543	2648.26611935341	134.33756254096	4094.4511077746
359.82714387988	139.351437732615	807.02052877855	1678.0842939512	177.478327130832	2569.83163736679	1055.32045207763	138	2218.71438802867	1758.82565720486	147.279747595733	2595.16370170511	1700.6122174906	127.04072345119	3820.27221912	1534.85222517988	136	2306.88445967482	842.638289055365	125	1793.99002554551	1414.15058753716	147.511162376079	2083.49780750243	1185.63847153417	138.391098726058	2298.8187060351	1846.04390780939	162.325545539466	2616.80566267514	1368.57152221785	137	2514.30803413729	1183.72992247613	139.166889389524	1695.72203933796	919.949365927547	126.101082211157	2244.55798986658	1338.74475442489	128	2510.42906848649	302.228444997	126	818.648486394066	2647.15716778148	134.348646529356	4094.34913505269
359.887355375044	139.35662742164	806.868875796075	1679.79605142861	177.602069188509	2572.69274854287	1055.733501077	138	2218.70049796052	1759.29010491449	147.221755231254	2595.37798459252	1700.43273421018	127.061156926116	3816.01932633668	1534.65645430594	136	2304.58198372054	842.20253276288	125	1792.16707068752	1412.54962913665	147.44754578246	2079.19707922867	1183.67901279437	138.366295321043	2294.51615558288	1842.94624975344	162.225790551206	2610.50805034683	1367.75312556334	137	2510.00555136328	1183.0807611191	139.124454348275	1692.67543558559	919.060879375514	126.113897378801	2243.43889075703	1337.00462647745	128	2508.65371796766	302.189717352267	126	818.975869995888	2646.62807443389	134.35143583273	4094.2816961135
359.973356888152	139.377088351843	806.902769719247	1681.56667173557	177.693306720789	2575.88677874041	1056.30691387484	138	2219.41223652415	1760.02844872904	147.1669121072	2596.49703281639	1700.67934912347	127.082403674188	3813.07356149062	1534.65989912369	136	2302.79053336088	841.908628582548	125	1790.85509166539	1411.18996232563	147.405756966235	2075.49884620195	1181.91356505481	138.337822360995	2290.88267084731	1840.26801257419	162.143386877018	2605.62385001572	1367.09178741433	137	2506.3261595818	1182.53664337825	139.084936148072	1690.23796554506	918.42083384625	126.118459717673	2243.16096461042	1335.80415117939	128	2508.19852099569	302.17128274271	126	819.379589249241	2646.6326591412	134.342669054208	4094.19968049722
360.082229950902	139.409683521389	807.130941901033	1683.30873658192	177.748755270528	2579.33068001785	1057.00913832961	138	2220.85803392553	1760.94992907128	147.117932698753	2598.42677476695	1701.30222103551	127.101082211157	3811.48439687286	1534.79437903737	136	2301.42410108617	841.761387363455	125	1790.09787519217	1410.13052008831	147.38829878725	2072.55132781237	1180.37489394906	138.310024708503	2287.95172914686	1838.01601934284	162.082229950902	2602.00951702772	1366.56450887784	137	2503.25798111383	1182.06544380057	139.052473253798	1688.36932004706	918.024349092182	126.113897378801	2243.58680672225	1335.11123700572	128	2508.82777914591	302.168760520757	126	819.819815877977	2647.06530122901	134.321162486102	4094.11761715639
360.212863711475	139.448660246991	807.549790579058	1684.96750500292	177.772882225897	2582.94326100532	1057.79639614885	138	2222.9615021427	1761.95828652534	147.077556980975	2601.00797080709	1702.20725053492	127.113897378801	3811.08190799162	1534.98978683679	136	2300.36479973169	841.748016256632	125	1789.85698682484	1409.38760168995	147.395222714436	2070.39229788865	1179.0661682394	138.286154873395	2285.72844746146	1836.14370397515	162.041506499712	2599.46029961358	1366.13499087595	137	2500.78680322902	1181.62927668106	139.028429474207	1687.00831479229	917.842599186973	126.101082211157	2244.56515769903	1334.84507089453	128	2510.28134228176	302.178237669516	126	820.280547612975	2647.79266815038	134.287886318682	4094.10011425161
360.363467151963	139.485509856966	808.139209212504	1686.50925351078	177.773680392046	2586.63972210041	1058.61494575604	138	2225.57015974812	1762.96024893847	147.046700926337	2604.04296803912	1703.27428575649	127.118459717673	3811.5324716679	1535.19221159842	136	2299.50040146091	841.841730134365	125	1790.02840004674	1408.94271747583	147.422444899829	2068.97246237928	1177.97159391688	138.271151836793	2284.22861970782	1834.58380626734	162.017727277756	2597.82178086478	1365.76822931018	137	2498.93653591736	1181.19774524326	139.013077025505	1686.11823848553	917.836757995717	126.082403674188	2245.96090950316	1334.90402961947	128	2512.3263426324	302.197431834923	126	820.767383700597	2648.6896752847	134.246237095302	4094.23515013483
360.528083887637	139.511432274739	808.857055442621	1687.90944449824	177.76131565714	2590.29031571102	1059.40481690513	138	2228.45199410544	1763.87462275974	147.025106444853	2607.29479099395	1704.38052678159	127.113897378801	3812.40124515337	1535.37076161615	136	2298.74370670962	842.008413368777	125	1790.46036787519	1408.75592633547	147.464125122827	2068.17885661864	1177.06893123002	138.270880038249	2283.48798368841	1833.27402360451	162.005977475148	2597.04230700636	1365.43783944913	137	2497.77308123757	1180.75487313968	139.004650252251	1685.7061767702	917.970224732545	126.061156926116	2247.66468659662	1335.19261481863	128	2514.7772346866	302.226319607954	126	821.296857543419	2649.67056613384	134.20016074977	4094.60108461618
360.699555343165	139.520784889756	809.640811618797	1689.15697715187	177.743938150623	2593.71762174975	1060.1142561326	138	2231.32493117791	1764.64866751364	147.011749802608	2610.50890711636	1705.42661926116	127.101082211157	3813.27475530404	1535.52737780443	136	2298.05864330269	842.2150041091	125	1790.99984942002	1408.78246974096	147.512878703738	2067.88077273125	1176.33761790188	138.287760750468	2283.55033598269	1832.17810521599	162.001327222897	2597.16415896244	1365.13324818073	137	2497.38218959435	1180.30631148637	139.001327222897	1685.81542910666	918.2114210127	126.04072345119	2249.58420699111	1335.63404352473	128	2517.48665526086	302.265715836247	126	821.882347203993	2650.69046473676	134.153555464955	4095.21658781645
360.868904400191	139.51141159489	810.410440377418	1690.2462744811	177.724809180918	2596.67513554369	1060.70341721831	138	2233.88098347023	1765.25462969259	147.005977475148	2613.41467550771	1706.34052875914	127.082403674188	3813.82981914569	1535.6772514181	136	2297.44787879991	842.430332709863	125	1791.51593780327	1408.97121472456	147.561771877495	2067.95037146712	1175.76000383915	138.323427761099	2284.44318472618	1831.28260656446	162	2598.27909251719	1364.85314120605	137	2497.83680162835	1179.86954126091	139	1686.50187977098	918.540848690415	126.023779221956	2251.63491394398	1336.18216137329	128	2520.33630657087	302.318441181935	126	822.527038501509	2651.75796705873	134.110833148395	4096.04414632362
361.026306784934	139.486562270297	811.078805873501	1691.17594818355	177.702790459141	2598.86856651884	1061.15198341415	138	2235.83247252018	1765.69258761228	147.005977475148	2615.75240993225	1707.0830313774	127.061156926116	3813.89223892871	1535.8377243071	136	2296.93792409614	842.630496811623	125	1791.92261206594	1409.2709955359	147.603986730094	2068.27891983411	1175.319623482	138.375761128946	2286.13646491514	1830.58422695097	162	2600.42992340782	1364.59808903179	137	2499.14199677931	1179.46653222586	139	1687.78446892633	918.942603009619	126.011749802608	2253.73011171539	1336.80872754438	128	2523.21265814671	302.384973720069	126	823.218708156303	2652.90220065952	134.075561174518	4096.99742283264
361.164409422064	139.454912531704	811.561787184959	1691.94699013062	177.673127237637	2599.97380501264	1061.45849537448	138	2236.9436225592	1765.97808090625	147.011749802608	2617.28421354994	1707.63793708594	127.04072345119	3813.42509117482	1536.00587070821	136	2296.5408767359	842.79604072675	125	1792.17451535462	1409.62324197965	147.633746126972	2068.76982353744	1174.99421041781	138.438232929679	2288.4978349995	1830.06736223032	162	2603.5081706019	1364.36093514502	137	2501.1786079283	1179.10840412762	139	1689.58984558243	919.398567717049	126.004650252251	2255.77288636983	1337.49360855077	128	2525.99394987382	302.46454936312	126	823.932844968513	2654.15154094027	134.051351178588	4097.9819584191
361.27660001798	139.426104256097	811.7940353951	1692.55031078585	177.629321625592	2599.69073327557	1061.63397045148	138	2237.07119625536	1766.12817137862	147.023779221956	2617.82834683217	1707.99968367953	127.023779221956	3812.53482351556	1536.14489862588	136	2296.24626300359	842.91030094596	125	1792.27302460327	1409.95760150918	147.647235044488	2069.34230654858	1174.75564509531	138.503241872323	2291.28985387497	1829.69211543739	162	2607.21861663304	1364.12106879207	137	2503.70094405773	1178.78745576115	139	1691.73630162032	919.884994490908	126.001327222897	2257.64967019911	1338.20928171431	128	2528.53488891611	302.553602154928	126	824.633925731724	2655.51326683438	134.041506499712	4098.91692738295
361.359491449474	139.409962930613	811.738459989612	1692.97070795868	177.56659660808	2597.80033614933	1061.69880794676	138	2236.18613632764	1766.15819346397	147.04072345119	2617.28467845825	1708.16247928896	127.011749802608	3811.38404077953	1536.17996499279	136	2295.98905026491	842.954576790086	125	1792.23243373293	1410.18981593931	147.642045355463	2069.90892399583	1174.56151288208	138.561754722041	2294.1641089304	1829.37816108325	162	2611.06708698097	1363.83610919031	137	2506.32733200519	1178.46898393065	139	1693.92389766532	920.368158400408	126	2259.23948853498	1338.91676053185	128	2530.67871038405	302.646283785276	126	825.284248765327	2656.95477052715	134.047278827172	4099.76890945643
361.412514390243	139.411808910435	811.395973245686	1693.1844153719	177.482977383082	2594.21775375093	1061.67593314181	138	2234.38056936641	1766.07718081345	147.061156926116	2615.65784664636	1708.11927000913	127.004650252251	3810.13767522627	1536.01329833595	136	2295.66072190916	842.911477584468	125	1792.06779935799	1410.23381447888	147.618261395906	2070.37299797291	1174.36941191903	138.60732005927	2296.72982497394	1829.03210291053	162	2614.46094263328	1363.45888645489	137	2508.62193795216	1178.10458117005	139	1695.79643716345	920.808140903121	126	2260.42511889151	1339.56163786367	128	2532.27607340007	302.73561138665	126	825.847209460746	2658.39953969908	134.069152925397	4100.55019093248
361.437079430068	139.430870918036	810.798955712244	1693.1689864371	177.381461894643	2589.00734717835	1061.5874563376	138	2231.8320651206	1765.8934013212	147.082403674188	2613.04459491057	1707.86642408603	127.001327222897	3808.92763964505	1535.55163613503	136	2295.13611770641	842.766812667832	125	1791.78627913887	1410.01894217506	147.577239453106	2070.6435850378	1174.14367627121	138.634153211809	2298.61921853861	1828.566893346	162	2616.83086049238	1362.94540329735	137	2510.16726573654	1177.64504677509	139	1697.00619085801	921.164003995947	126.001327222897	2261.10338539317	1340.08815444917	128	2533.20260032834	302.813605677087	126	826.291719205864	2659.75095836133	134.103207600203	4101.29559555287
361.437856896421	139.46120361609	810.002905696607	1692.91601174856	177.268422033417	2582.39161640795	1061.45379550795	138	2228.77309804854	1765.62692820853	147.101082211157	2609.62710290381	1707.40444745123	127	3807.78138278799	1534.73087269705	136	2294.28715967309	842.512695894621	125	1791.36634892222	1409.50519215921	147.522910278803	2070.62885977575	1173.86755656258	138.640850484503	2299.57188869289	1827.93689317455	162	2617.78121696157	1362.274927029	137	2510.66974333928	1177.06004091465	139	1697.30661672059	921.406885975548	126.004650252251	2261.21821841596	1340.45566180056	128	2533.40721155681	302.875742092688	126	826.598667211097	2660.91750381019	134.143560600305	4102.06437079132
361.420393979835	139.494749903367	809.077630468398	1692.43101698288	177.154005897692	2574.72747849316	1061.28890274951	138	2225.44681066563	1765.30197547231	147.113897378801	2605.64772347849	1706.75127756254	127	3806.64861779312	1533.54196781713	136	2293.02703645996	842.154766791214	125	1790.77493227926	1408.70063662214	147.460689666339	2070.26711804318	1173.55747165721	138.626962223679	2299.49689972668	1827.17226283747	162	2617.19552674692	1361.46847723429	137	2510.02876268703	1176.36002141826	139	1696.61718753093	921.52900464965	126.011749802608	2260.76613344896	1340.65344948736	128	2532.91678218917	302.917770049098	126	826.761313564883	2661.84424945995	134.183485885345	4102.89102278371
361.391013246416	139.521139864078	808.090933734756	1691.75065559326	177.047906177325	2566.45521008581	1061.10363018795	138	2222.06107126529	1764.95867794011	147.118459717673	2601.36200359613	1705.94100382821	127	3805.43134716072	1532.03970407757	136	2291.33718304893	841.712085164207	125	1789.98188031928	1407.66267381615	147.397654102041	2069.54082576935	1173.25665171626	138.595826552302	2298.49680556867	1826.36975123216	162	2615.27812570172	1360.58625214491	137	2508.37093452169	1175.59607689898	139	1695.0532864952	921.544033051348	126.023779221956	2259.80588741734	1340.70347061597	128	2531.84443093523	302.939364530583	126	826.786312354664	2662.52303411651	134.214979589957	4103.77313769581
361.353693497048	139.53332044066	807.099095094183	1690.93193281454	176.957368517789	2558.03930469037	1060.90328612856	137.998672777103	2218.7628669754	1764.63521615599	147.113897378801	2596.99986646962	1705.01953500695	127	3804.0222362585	1530.32972870114	136	2289.27009272267	841.214452837075	125	1788.97473948226	1406.48434392407	147.339687930007	2068.48136735339	1173.0240839253	138.552130308479	2296.82679292445	1825.67318420795	162	2612.48533910451	1359.71764463786	137	2506.00882093838	1174.85325577028	139	1692.89530162673	921.483220630306	126.04072345119	2258.46148659455	1340.65620531193	128	2530.37940021191	302.942876493951	126	826.697112660771	2662.99165082952	134.23368431937	4104.67862174351
361.312590485871	139.528003353111	806.147362579506	1690.05694308599	176.886885669721	2549.9219675912	1060.69459380549	137.995349747749	2215.64245810576	1764.37192184614	147.101082211157	2592.74485479611	1704.04037241153	127	3802.37929497926	1528.54792955618	136	2286.95294952381	840.697696363747	125	1787.78218079598	1405.27630890259	147.290820243273	2067.17520591181	1172.91610408727	138.5013911549	2294.82764689946	1825.23089598662	162	2609.40247108777	1358.96078838936	137	2503.36155370341	1174.22913595373	139	1690.51932530567	921.387463428697	126.061156926116	2256.90220384297	1340.57523311317	128	2528.75017190749	302.932865598736	126	826.532774217827	2663.31793801314	134.237007348724	4105.54330192383
361.268422033417	139.506323327756	805.25810415302	1689.20900942975	176.838110633966	2542.44528313146	1060.48191887368	137.988250197392	2212.71982688908	1764.19294429454	147.082403674188	2588.68922755927	1703.04807065196	127	3800.54958188356	1526.82359277977	136	2284.55427838404	840.192857813667	125	1786.47509383123	1404.13458008834	147.252634003568	2065.74153458302	1172.9658608959	138.451198283096	2292.84104037122	1825.14567607917	162	2606.59245056499	1358.39490148957	137	2500.86297297343	1173.80616892541	139	1688.30849315493	921.296865050367	126.082403674188	2255.3224218548	1340.51971019818	128	2527.18850297331	302.916269102915	126	826.343929473743	2663.57657315798	134.226729392565	4106.30329645672
361.222877306464	139.472170370176	804.444459796061	1688.46040997283	176.809676422159	2535.84558769771	1060.27033919592	137.976220778044	2209.99134744473	1764.1030925047	147.061156926116	2584.86029217693	1702.0766570328	127	3798.67154505473	1525.2558002965	136	2282.24525399786	839.722659998951	125	1785.15690595342	1403.12058124216	147.22366516216	2064.3071720729	1173.16883091337	138.409369912151	2291.10541324232	1825.43992406558	162	2604.42689717526	1358.06147253192	137	2498.83095693747	1173.6298328831	139	1686.54509952832	921.238330257968	126.101082211157	2253.91401134004	1340.52799139457	128	2525.88866905202	302.898917788843	126	826.190394208893	2663.82307834903	134.208592330198	4106.91658541283
361.174535617565	139.432705887268	803.712223635262	1687.84764976821	176.799162800584	2530.22944608599	1060.0614047641	137.95927654881	2207.4472985383	1764.08069199574	147.04072345119	2581.23696544962	1701.13475641835	127	3796.94174579307	1523.88676514765	136	2280.17055293971	839.290984525588	125	1783.93948127142	1402.24554694066	147.201213163101	2062.98190415821	1173.47064581333	138.381977744279	2289.69931549391	1826.04475608861	162	2603.03498604716	1357.94808287503	137	2497.4173727163	1173.68295352356	139.001327222897	1685.37021885789	921.21658603805	126.113897378801	2252.819075615	1340.6414643584	128	2525.0419137218	302.887429844096	126	826.135394329438	2664.0692321848	134.190261526642	4107.37913630863
361.122324152055	139.393112443017	803.064669685352	1687.3556006351	176.803698947011	2525.58690060888	1059.85522934153	137.938843073884	2205.10730581109	1764.11311009285	147.023779221956	2577.83901287922	1700.19619112558	127	3795.51229715115	1522.70446161561	136	2278.40895211602	838.876718585322	125	1782.8899795918	1401.47771210587	147.179704557167	2061.82955437432	1173.76814463538	138.375328626659	2288.51506308378	1826.82876147419	161.998672777103	2602.30764790414	1357.99012302453	137	2496.57806879983	1173.90296567827	139.005977475148	1684.78039958784	921.204655230497	126.118459717673	2252.09783531052	1340.93787645178	128	2524.86323213743	302.887517757474	126	826.241141673307	2664.2530421827	134.180764581178	4107.72949806326
361.065009012217	139.357039244078	802.507581229719	1686.91577958901	176.820383356211	2521.80405300608	1059.65528566298	137.917596325812	2203.02779045194	1764.22706474178	147.011749802608	2574.77483068944	1699.20489150791	127	3794.43171165827	1521.65877988349	136	2276.97904450581	838.432637238642	125	1781.99805904031	1400.7640286559	147.154532916612	2060.87015472751	1173.91998564568	138.391375435509	2287.27612617387	1827.6371012645	161.994022524852	2601.97447224117	1358.0799968315	137	2496.09821486293	1174.19704877224	139.016400054859	1684.66448559365	921.137679978522	126.113897378801	2251.67924694212	1341.57210320449	128	2525.63089585301	302.905157121852	126	826.55672151655	2664.21866050062	134.187085624149	4108.00169395008
361.003445001264	139.326100788659	802.048695140107	1686.42275591183	176.846706392907	2518.69890329098	1059.47536865069	137.90024501174	2201.31416704085	1764.5273705297	147.005977475148	2572.31274896288	1698.07313089059	127	3793.57191203364	1520.68357612375	136	2275.84105970986	837.885664318185	125	1781.14605692567	1400.05724031116	147.119949323001	2060.0869682557	1173.75756171204	138.429968690479	2285.59431523421	1828.34681046706	161.982272722244	2601.73085199779	1358.0856804435	137	2495.65679563018	1174.48495392447	139.036856247461	1684.88281442255	920.914135599106	126.101082211157	2251.35630810965	1342.80617951524	128	2527.75073993293	302.9477289866	126	827.121650763837	2663.70431037442	134.212863711475	4108.21609402996
360.939357023635	139.29851404608	801.693237232235	1685.7461339407	176.879788819138	2516.0147537074	1059.34399289629	137.89075287345	2200.08377091189	1765.21906428354	147.005977475148	2570.87142743511	1696.6922049935	127	3792.59290134521	1519.71949624381	136	2274.90287399871	837.143388396181	125	1780.09582617737	1399.34291732716	147.071325514053	2059.43594396764	1173.11280902851	138.48524989899	2283.07064194301	1828.89787379535	161.957166277391	2601.35244736305	1357.87291023698	137	2494.92382763487	1174.73628556879	139.069152925397	1685.34117906287	920.406522364679	126.082403674188	2250.81491219501	1345.0021559013	128	2531.73052089396	303.024858252514	126	827.963124251495	2662.36255068474	134.255957032921	4108.36136523215
360.878484313917	139.2747575418	801.439292149869	1684.77495581221	176.917596325812	2513.45599208646	1059.30549070396	137.893290084935	2199.43517295962	1766.58947978144	147.011749802608	2570.94815476467	1694.95185844739	127	3791.0131155267	1518.7281452089	136	2274.04628926701	836.107336564351	125	1778.53400496285	1398.6498691814	147.00349675264	2058.87431720807	1171.85126393775	138.548527662386	2279.4006316503	1829.30532900398	161.911792573951	2600.7547060077	1357.3331221355	137	2493.64290929599	1175.00126252501	139.113630179914	1686.02542496963	919.486276609589	126.061156926116	2249.70282276622	1348.54797791756	128	2538.09836319415	303.147441203517	126	829.099238110276	2659.81035440391	134.308721244315	4108.39879931801
360.828805391864	139.255726533818	801.277352611274	1683.44065363091	176.957972043589	2510.72909070208	1059.40817896549	137.909881843156	2199.41876806113	1768.93559946253	147.023779221956	2573.00505275785	1692.76519283445	127	3788.33019137868	1517.6939720219	136	2273.14568568164	834.695558780846	125	1776.1436886522	1398.04619853061	146.914447019745	2058.383719491	1169.90893312483	138.607926729573	2274.4761445674	1829.6437928477	161.838885845226	2600.00547272712	1356.41032175989	137	2491.70672233657	1175.41138105912	139.167339822261	1687.01040720751	918.058032281722	126.04072345119	2247.73083166435	1353.76586417118	128	2547.28588283762	303.326530828386	126	830.546750473984	2655.7243625854	134.359867413159	4108.30732164532
360.798185348926	139.243927613574	801.191172484451	1681.74574606295	176.998672777103	2507.59174256632	1059.69224131449	137.939641240033	2200.01117414079	1772.48923147206	147.04072345119	2577.32714745124	1690.08572956133	127	3784.14393267099	1516.60957790727	136	2272.07708731394	832.859810149343	125	1772.68195664046	1397.61319305579	146.801855874479	2057.9690445399	1167.31517999637	138.654456566756	2268.43467982661	1830.00477166555	161.732702949082	2599.27186748133	1355.11246502513	137	2489.18480458338	1176.15207576688	139.224209336535	1688.42309913899	916.083779174622	126.023779221956	2244.75820510873	1360.80415508447	128	2559.4810293166	303.570216868038	126	832.318312194674	2649.91387587472	134.398465475302	4108.10012317087
360.794582772405	139.244469088175	801.165791279658	1679.77224303964	177.03737770416	2503.91506365915	1060.17484695759	137.978753251928	2201.12265023141	1777.33568961616	147.061156926116	2583.92192268436	1686.92648487895	127	3778.28532933766	1515.46704833854	135.998672777103	2270.73424863958	830.603337983162	125	1768.05793796359	1397.41951487081	146.667149762489	2057.66077862549	1164.19655129804	138.681810909955	2261.64421496995	1830.44357286889	161.590897286735	2598.72459976537	1353.50640429138	137	2486.2905394825	1177.41160908083	139.276136516073	1690.37623306851	913.603501264172	126.011749802608	2240.83867399337	1369.56896499759	128	2574.50644667887	303.881754940578	126	834.417624238098	2642.39789084127	134.417170204716	4107.83610854719
360.823291793779	139.260393941523	801.190192353773	1677.67579603567	177.07065387158	2499.71368912519	1060.84420701594	138.021246748072	2202.60560928146	1783.37213779794	147.082403674188	2592.46007555815	1683.36797850385	127	3770.8980891089	1514.25138683689	135.995349747749	2269.0391808829	827.988528918898	125	1762.37969532534	1397.49576393298	146.513856155396	2057.49941583726	1160.77085806666	138.688744243974	2254.64899701558	1830.95045467684	161.415842981819	2598.45285606541	1351.71089897822	137	2483.33375298012	1179.3347471019	139.314760770662	1692.91591755863	910.734859933661	126.004650252251	2236.21186972151	1379.69875817956	128	2591.75933762589	304.256607272321	126	836.82729299792	2633.43304408527	134.412061653641	4107.59657165457
360.884601675016	139.293596594943	801.258591415971	1675.65417709657	177.096431958906	2495.14736926372	1061.65294349046	138.060358759967	2204.28084627696	1790.2940764997	147.101082211157	2602.2894523626	1679.54563629163	127	3762.4045897287	1512.93194213443	135.988250197392	2266.93200758827	825.130559854196	125	1755.93910185035	1397.81179924045	146.347407219837	2057.49874257338	1157.30640227779	138.678113816802	2248.04314843098	1831.42074140788	161.214979589957	2598.38044030614	1349.86247989314	137	2480.61230214648	1181.97537723021	139.33343930763	1695.96198825263	907.656155457486	126.001327222897	2231.24981988324	1390.60651732068	128	2610.24226126733	304.681633524332	126	839.496062444439	2623.49552044388	134.385912561428	4107.46064187701
360.976497487494	139.343010959361	801.373399965414	1673.91796563733	177.112570155904	2490.48660395201	1062.52992404	138.090118156844	2205.9663259276	1797.63989952991	147.113897378801	2612.52276729198	1675.63630568554	127	3753.42302429041	1511.4749898223	135.976220778044	2264.36808590188	822.184300076793	125	1749.16430492236	1398.28004664731	146.176643385675	2057.6175440317	1154.08607194203	138.656200163858	2242.36926386191	1831.67920141589	161.001327222897	2598.26873756207	1348.09621141963	137	2478.35260878269	1185.28099286784	139.328876968758	1699.31604333757	904.576897251431	126	2226.36009376859	1401.57283240749	127.998672777103	2628.68527122847	305.136611235721	126	842.329363626459	2613.21248222426	134.344941708058	4107.45852741103
361.089586400323	139.403304523625	801.53461416458	1672.64221878416	177.118459717673	2486.04002571919	1063.38454576204	138.106709915065	2207.48721870704	1804.8539973952	147.118459717673	2622.1677703047	1671.82942622338	127	3744.63255347645	1509.85480775493	135.95927654881	2261.31858576694	819.320812449262	125	1742.53563444269	1398.76799864533	146.011078160135	2057.74854726479	1151.3569517864	138.629166098793	2238.01159530561	1831.51164470999	160.789670662294	2597.7580425359	1346.51579870784	137	2476.64940323175	1189.0992347985	139.301945603018	1702.68939642952	901.698029778444	126	2221.88600009931	1411.87137868627	127.994022524852	2645.73771349414	305.594243033765	126	845.189117041977	2603.25810965051	134.297116065259	4107.54334129445
361.213507140084	139.466286370628	801.739635803356	1671.95504920488	177.1138973788	2482.10410397911	1064.13229311914	138.10924712655	2208.70612393655	1811.40027937268	147.113897378801	2630.30638079633	1668.29344868136	127	3736.61790127553	1508.06657940121	135.937515850987	2257.77211305555	816.697815915089	125	1736.48757696658	1399.12460512821	145.86082245306	2057.71847511413	1149.2945073942	138.60312338426	2235.1404875475	1830.727040926	160.59590682079	2596.47121605422	1345.18451005896	137	2475.46387825445	1193.21359339321	139.257457979105	1705.77590780531	899.175462496306	126	2218.04200250379	1420.89364041657	127.983599945141	2660.21018921637	306.026216971672	126	847.909156776979	2594.23205071625	134.250091229861	4107.60414734612
361.335823633567	139.523700834272	801.980094571367	1671.90975809541	177.101082211157	2478.91086113261	1064.70458968998	138.09975498826	2209.53732466808	1816.84212012824	147.101082211157	2636.25555908497	1665.16870889825	127	3729.78670231735	1506.15358054326	135.911618850664	2253.76236000902	814.444196264754	125	1731.34155572356	1399.2264763475	145.733583421546	2057.33144997699	1147.98280167319	138.581943715757	2233.71108411818	1829.21782995771	160.432881935221	2594.12624180561	1344.12444869015	137	2474.65785129292	1197.39487823677	139.202962588463	1708.33078092252	897.100504486182	126	2214.88162635932	1428.24797949192	127.964470975436	2671.27193006156	306.404676687109	126	850.316490257617	2586.56844614652	134.209390496347	4107.48666689175
361.44453701366	139.565381057271	802.24036857252	1672.49423267585	177.082403674188	2476.61084862028	1065.06498268056	138.082403674188	2209.95724788587	1820.92053024823	147.081076451291	2639.68008057654	1662.54368976571	127	3724.32119628548	1504.20518154926	135.882517733985	2249.3843780178	812.639254186611	125	1727.26158655695	1399.00135392267	145.633745327082	2056.41534153022	1147.4097639555	138.569763069602	2233.50714450545	1826.99171003845	160.308020502108	2590.63068223496	1343.3232203689	137	2474.0522113243	1201.45030242309	139.146906347334	1710.23311846094	895.489215000483	126	2212.31782252001	1433.80391148345	127.934170103957	2678.58075995179	306.708373753316	126	852.260264586054	2580.47687580642	134.177334686911	4107.0403076728
361.530945611606	139.586596805724	802.501658353787	1673.63180390051	177.061156926116	2475.28165600623	1065.21262917495	138.061156926116	2210.01575223903	1823.57749826256	147.056506673866	2640.63742801707	1660.46425384242	127	3720.20286667638	1502.35821927306	135.849246373738	2244.80851086198	811.313751948058	125	1724.25651246003	1398.45407378573	145.561705019122	2054.87308638557	1147.48657858	138.567739807868	2234.21039995782	1824.18442779496	160.223598303787	2586.11011995557	1342.75163427435	137	2473.47951168891	1205.26109064104	139.09668595068	1711.50446740196	894.298143593115	126	2210.17745033281	1437.67922453976	127.892142147546	2682.29529895244	306.924151509422	126	853.634738033141	2575.94743054744	134.154076655615	4106.16440242545
361.589592781514	139.586078118372	802.749990868918	1675.19631470727	177.04072345119	2474.95499354542	1065.17685096581	138.04072345119	2209.83478474422	1824.9349224564	147.028973648582	2639.53971058142	1658.94001328808	127	3717.2937026113	1500.77649511939	135.811060134033	2240.28104798312	810.452161119402	125	1722.21792520191	1397.66426735206	145.513882017575	2052.72534614996	1148.0726775384	138.575222828858	2235.48252829462	1821.03199678703	160.175261352488	2580.88582339076	1342.37696752336	137	2472.82935349022	1208.79272433715	139.057123506049	1712.29061567925	893.447916699861	126	2208.27433004393	1440.17451714518	127.83871212194	2682.98682355039	307.048059645496	126	854.394956363063	2572.80000388184	134.136186995429	4104.84709634867
361.617478347384	139.566067551333	802.974288118831	1677.02393093877	177.023779221956	2475.62673433487	1065.00252067104	138.023779221956	2209.57675297319	1825.23426688002	147	2637.02490658564	1657.9444973998	127	3715.42247765327	1499.61194887151	135.766494966138	2236.10262861776	810.001267633282	125	1720.97663560548	1396.75749465805	145.485633728761	2050.11970892632	1149.01542038661	138.59204252435	2237.05449271433	1817.8280714521	160.155665736374	2575.41840390373	1342.17821735361	137	2472.09080873322	1212.08838230797	139.029756697104	1712.82420742313	892.856388470692	126	2206.47190151211	1441.6795025381	127.77633483784	2681.46382470168	307.08358867006	126	854.558206277179	2570.76959517715	134.121202076845	4103.16895797715
361.615998169367	139.533332858514	803.174256138767	1678.94345883284	177.011749802608	2477.27779163912	1064.74067432997	138.011749802608	2209.4239920936	1824.769853494	146.971026351418	2633.81203616253	1657.4287576155	127	3714.45114961655	1498.97478242162	135.715177911724	2232.58697073441	809.887733270484	125	1720.3570753775	1395.87289253472	145.473046894298	2047.30768273372	1150.1816362715	138.616899577087	2238.76150942366	1814.87039912294	160.156731101409	2570.2019207405	1342.15680222244	137	2471.33863845776	1215.24334530333	139.013077025505	1713.3544900489	892.460331664074	126	2204.72104242144	1442.57182540417	127.707440711392	2678.57393059591	307.040583261991	126	854.193870722557	2569.58868937567	134.107059686304	4101.28179284311
361.587311865669	139.494313567171	803.355291492018	1680.7917919781	177.004650252251	2479.85565024473	1064.43357468147	138.004650252251	2209.5338660103	1823.81865303416	146.943493326134	2630.54207863923	1657.32050816385	127.001327222897	3714.31816567858	1498.903128288	135.657857964712	2230.02331328504	810.02737986036	125	1720.22064077587	1395.12349601792	145.474119987478	2044.60370607303	1151.46757362773	138.64881625916	2240.54135065241	1812.41130487016	160.171138119158	2565.68270506554	1342.32535605385	137	2470.71331442757	1218.35555526932	139.004650252251	1714.10413067035	892.221725634877	126	2203.04244851349	1443.16164593351	127.636005829117	2675.07211136488	306.932663358339	126	853.403035984994	2569.02692528898	134.094153476797	4099.35634955147
361.536940242208	139.4568152217	803.523141430122	1682.43413258622	177.001327222897	2483.24249127468	1064.114806176	138.001327222897	2210.00783460384	1822.62660573704	146.918923548709	2627.69765012267	1657.52422740539	127.004650252251	3715.00258456023	1499.356970652	135.598203884664	2228.62111410018	810.333519483456	125	1720.469392052	1394.5734057515	145.487904344784	2042.31881596162	1152.80591321026	138.685675206395	2242.41611383275	1810.63490318058	160.194108805569	2562.2050614188	1342.70471480356	137	2470.39076467167	1221.51183032739	139.001327222897	1715.24660367944	892.123434779484	126	2201.51342967563	1443.66844111029	127.566958797173	2671.53292653811	306.773854115333	126	852.304646187049	2568.91640163615	134.084936148072	4097.56528896067
361.469521486604	139.426741856446	803.675805253328	1683.7630087642	177	2487.21628343498	1063.8031002762	138	2210.85570883543	1821.37905827913	146.898917788843	2625.52537175211	1657.92851104173	127.011749802608	3716.48533724345	1500.22473703786	135.542635400842	2228.4727250099	810.725116375713	125	1721.03740635875	1394.2265887662	145.515004092785	2040.69829264183	1154.15944766798	138.724814743139	2244.44550389719	1809.63619587615	160.224992385057	2559.96230389665	1343.30832612856	137	2470.53541451319	1224.75998765515	139	1716.88382645949	892.153973657014	126.001327222897	2200.20381369557	1444.21270485492	127.504848574017	2668.30025710924	306.578880285241	126	851.01014621923	2569.13352780769	134.08144690238	4096.0174335606
361.389686023519	139.408302509288	803.798829126504	1684.70917052773	177	2491.4488386614	1063.5067918523	138	2212.0011178511	1820.20364616009	146.8861026212	2624.05463337968	1658.41021466639	127.023779221956	3718.69882446658	1501.3455067737	135.499220870109	2229.53151284122	811.130200009717	125	1721.87021602301	1394.03184601279	145.555732351149	2039.87534930503	1155.50701808381	138.763259850162	2246.67531832601	1809.43175748185	160.265715836247	2558.99171094639	1344.13230803353	137	2471.26077564773	1228.11038624007	139	1719.04936098651	892.296365689706	126.004650252251	2199.1518639659	1444.8408240224	127.454628177363	2665.52954298309	306.361885937292	126	849.617337216424	2569.5847084291	134.084936148072	4094.7713504125
361.298588515133	139.403387629829	803.862779135797	1685.21981876616	177	2495.51424164628	1063.21739489911	138	2213.28526568318	1819.16519807892	146.881540282327	2623.13622695225	1658.84647553779	127.042050674087	3721.47359266153	1502.54037676943	135.475887343289	2231.60385581044	811.488822931027	125	1722.89523687251	1393.9030233732	145.609437186321	2039.83830675232	1156.83356740886	138.795166280304	2249.1311755867	1809.96276373827	160.317113959038	2559.21760191883	1345.14812049742	137	2472.63417980667	1231.5329406288	139	1721.73321522975	892.519583321073	126.011749802608	2198.34640858833	1445.54878239948	127.419792491862	2663.21977285765	306.136611235721	126	848.203481696455	2570.18708743403	134.094153476796	4093.83498118792
361.194452639431	139.412605028127	803.826198349217	1685.26375893653	177	2498.95161600048	1062.91305098365	138	2214.49917914455	1818.2713237156	146.8861026212	2622.50706307922	1659.12832626303	127.065807178367	3724.53965876016	1503.64355899527	135.477097331877	2234.38325245044	811.754611336442	125	1724.01234503357	1393.73777299976	145.672860038751	2040.43976804208	1158.1252879484	138.816687837942	2251.7997256303	1811.11819425546	160.380323467819	2560.48007853965	1346.30692605375	137	2474.66536715808	1234.97120573056	139	1724.88678630105	892.780581452983	126.023779221956	2197.72758427012	1446.29249617014	127.403654294865	2661.26304874767	305.915317843702	126	846.822433872224	2570.85645720103	134.105732463407	4093.1756550611
361.072032845854	139.433390974066	803.646127003299	1684.8311654853	177	2501.3494264336	1062.56129756235	138	2215.43161797525	1817.48449726095	146.898917788843	2621.88021536974	1659.17553234861	127.094153476796	3727.56277060257	1504.53359853624	135.504207449274	2237.50287302987	811.898441301556	125	1725.0965812403	1393.44548278912	145.742280163034	2041.43296149124	1159.36692467181	138.823639289978	2254.63430616836	1812.75590395625	160.452799560511	2562.58652179648	1347.54556146742	137	2477.31434570574	1238.35049609984	139	1728.43888137034	893.032275504565	126.04072345119	2197.21634846395	1447.0106232195	127.405495108374	2659.51246107392	305.708594211002	126	845.512181327231	2571.51509287375	134.115224601697	4092.76113783345
360.924086550934	139.46120361609	803.28598761829	1683.92877389958	176.998672777103	2502.41584436733	1062.1221387368	138	2215.90836444404	1816.73515763881	146.916269102915	2621.01323673747	1658.93867460706	127.124861433113	3730.17414183007	1505.1440677309	135.552930512456	2240.59231660323	811.903920791484	125	1726.0041914534	1392.95723907541	145.811065696255	2042.51335164842	1160.54037184399	138.814932899984	2257.56640093409	1814.71923449727	160.529822932972	2565.35106378203	1348.7942586014	137	2480.50472613412	1241.58558510311	139	1732.30534112646	893.230531064961	126.061156926116	2196.73270989881	1447.63858172937	127.423678647126	2657.82543916995	305.524327314962	126	844.294732407994	2572.09440484373	134.118459717673	4092.56342209626
360.743405145533	139.490902624439	802.728603739276	1682.58135186793	176.994022524852	2502.0399382585	1061.55810804306	138	2215.83551072333	1815.94563324356	146.934192821633	2619.77280291219	1658.39945580958	127.15462082999	3732.03543767443	1505.46732150799	135.613007617855	2243.33955689853	811.766061760716	125	1726.59275442226	1392.23683580879	145.873013177841	2043.38099703339	1161.63028951167	138.792364441611	2260.50071049534	1816.85976298763	160.605560334086	2568.6042461904	1349.98750804126	137	2484.11251240099	1244.5963943639	139	1736.37927940602	893.347224720233	126.082403674188	2196.21212463601	1448.12806718739	127.452799560511	2656.09367992153	305.368379262075	126	843.179504089782	2572.5547397411	134.1138973788	4092.56352350909
360.525090108368	139.517020717033	801.979093650498	1680.83081648937	176.982272722244	2500.29573934737	1060.84261787883	138	2215.21105996554	1815.0536827435	146.947526746202	2618.15070130528	1657.56686852421	127.179616643789	3732.88560032548	1505.54390772352	135.674454460534	2245.53035261092	811.487397510094	125	1726.74251798423	1391.2763518936	145.923747524246	2043.78960115614	1162.62526022226	138.760443021937	2263.34213673928	1819.04562696987	160.674454460534	2572.20947807154	1351.07013890386	137	2487.98631635981	1247.31355920917	139	1740.54233991991	893.373530853851	126.101082211157	2195.62273869822	1448.45442302009	127.486467753664	2654.27072855742	305.243517828962	126	842.167933568752	2572.88396709038	134.101082211157	4092.75490856489
360.267609411587	139.53545063688	801.065584682854	1678.73363492372	176.958493500288	2497.41227389403	1059.96667486299	138	2214.11652941468	1814.02074919683	146.952441556088	2616.23899427026	1656.46541712026	127.196301052989	3732.57258888139	1505.43516593927	135.726409164922	2247.05922206653	811.074194518388	125	1726.36980355963	1390.08712746578	145.959820723185	2043.57422221097	1163.52007484711	138.726229879414	2265.99743987763	1821.17025867315	160.732529225795	2576.05397220912	1352.00126396795	137	2491.94908791905	1249.6892357426	139	1744.6629410044	893.324446916179	126.113897378801	2194.96841051715	1448.62535806514	127.51717918475	2652.36999513993	305.150691575062	126	841.256222056477	2573.11430408977	134.082403674188	4093.13462126116
359.97648797693	139.543076185073	800.039385621684	1676.37345045637	176.917770049098	2493.73347919849	1058.94884044062	138	2212.70687314325	1812.84817420686	146.947526746202	2614.20347884381	1655.13099545485	127.202164422313	3731.09597627304	1505.20469215732	135.762180029446	2247.93650552048	810.534154910245	125	1725.4549079726	1388.68922307685	145.982272722244	2042.67417907844	1164.31626384733	138.696639260707	2268.38994395606	1823.1493106336	160.779310133782	2580.03980393148	1352.75473815856	137	2495.81840076472	1251.69972712809	139	1748.61014414433	893.236439096396	126.118459717673	2194.28181226867	1448.67860411872	127.537843224813	2650.45417955453	305.089534648946	126	840.438959646232	2573.3144074462	134.061156926116	4093.68387477758
359.66163929289	139.5397221561	798.96396193659	1673.86212338549	176.856613122982	2489.6444903092	1057.83348019208	138	2211.16764595818	1811.57673811629	146.934192821633	2612.2252620805	1653.60849509904	127.196301052989	3728.58771380367	1504.90095068182	135.780614639002	2248.25168145791	809.880351409974	125	1724.03919565342	1387.10389150056	145.994022524852	2041.1173664893	1165.01831536625	138.676633500842	2270.47334832077	1824.91859190307	160.815622472906	2584.0838286106	1353.31864643031	137	2499.43316509562	1253.34491686087	139	1752.27440361178	893.159538739537	126.113897378801	2193.62830235439	1448.67587911001	127.542379371241	2648.63500866412	305.060561000364	126	839.717554167137	2573.58096988691	134.04072345119	4094.38606381984
359.339687930007	139.525719358405	797.907175883199	1671.34461856065	176.772882225897	2485.51932400903	1056.69239083432	138	2209.68583471075	1810.28352270411	146.914941880018	2610.45816323927	1651.9499554483	127.179616643789	3725.28977277145	1504.54753787761	135.784766418268	2248.13531991145	809.130370258235	125	1722.2205362287	1385.35057016402	145.998672777103	2038.99403435796	1165.63384092481	138.668839174479	2272.23293854133	1826.43151521449	160.844684034866	2588.10344434296	1353.69566903499	137	2502.66909627799	1254.64688933349	139	1755.57870925958	893.148480143698	126.101082211157	2193.08946656007	1448.69332712877	127.530540564596	2647.05020174239	305.065211252615	126	839.105194816887	2574.029641472	134.023779221956	4095.21646600231
359.029489498217	139.504231741834	796.932254003312	1668.97546900179	176.667149762489	2481.68161229625	1055.60450579383	138	2208.42352199322	1809.05436782767	146.894267536593	2609.0040584548	1650.21591598951	127.15462082999	3721.51018376849	1504.14603176697	135.781409330383	2247.71944038678	808.308071004916	125	1720.13949952147	1383.44772315701	146	2036.42506297759	1166.17136188067	138.670956952846	2273.67727584375	1827.65473705315	160.869702566341	2591.99507878291	1353.89947939805	137	2505.43881417516	1255.64201014995	139	1758.47718840712	893.250611038009	126.082403674188	2192.74945957258	1448.80376045634	127.505691240003	2645.84056215723	305.105934703805	126	838.626940492437	2574.76547575417	134.013077025505	4096.14894866394
358.748790643271	139.478147845324	796.089833513397	1666.90613606097	176.541502581081	2478.37230735868	1054.64596615317	138	2207.49185340471	1807.97009443923	146.874352818591	2607.89563818403	1648.46777242294	127.124861433113	3717.56879934326	1503.67945286912	135.779042934895	2247.10211956499	807.443650678726	125	1717.9532866722	1381.41295358845	146	2033.52786489364	1166.64095133537	138.679794285707	2274.82796995906	1828.56824642329	160.892940313696	2595.62635272265	1353.95550505846	137	2507.68964856061	1256.37690084911	139	1760.95102223362	893.495639418186	126.061156926116	2192.69113226717	1449.06813746811	127.475179790292	2645.14473298568	305.186220599627	126	838.32661986256	2575.8729502358	134.009300504501	4097.17335775399
358.511766139093	139.453851973842	795.40824646506	1665.25130711623	176.400590864349	2475.72697900306	1053.86805868992	138	2206.93155783365	1807.07724884576	146.857761060371	2607.08690057171	1646.76637933327	127.094153476796	3713.7325268547	1503.12475513088	135.782365964249	2246.32226035932	806.569775487456	125	1715.80557844141	1379.26725965551	146	2030.38673160806	1167.05196824138	138.690854515393	2275.7088723544	1829.16003881372	160.916269102915	2598.83023547432	1353.89550433885	137	2509.39410932612	1256.89808546445	139	1762.99416418623	893.888182059205	126.04072345119	2192.97959566289	1449.51606817282	127.449192176817	2645.07009595968	305.308020502108	126	838.256902066942	2577.38799010033	134.013077025505	4098.28258295032
358.327075002761	139.436902937435	794.893693776472	1664.08249669519	176.250620286609	2473.78018334826	1053.29177825031	138	2206.71565319562	1806.38391923482	146.84537917001	2606.47351365504	1645.16602372483	127.065807178367	3710.18362704069	1502.46448270572	135.794486355888	2245.36260736039	805.719925192008	125	1713.80369285271	1377.03615287915	146	2027.04061044416	1167.40975735898	138.701128996783	2276.31758343616	1829.42534472112	160.938843073884	2601.39954606513	1353.75277618443	137	2510.52115503698	1257.24748997063	139	1764.59203369277	894.403240858547	126.023779221956	2193.65588177176	1450.14139287117	127.437187153833	2645.68744150377	305.470259639381	126	838.472045518826	2579.28404656172	134.023779221956	4099.47344948055
358.196848327025	139.431540256643	794.529472013775	1663.42382485871	176.098803729047	2472.46980443612	1052.9048904049	138	2206.75125682227	1805.86292189563	146.837760862727	2605.90761202829	1643.71077370538	127.042050674087	3707.00179838496	1501.6978240447	135.813195892475	2244.16669166008	804.924050267446	125	1712.00492515258	1374.7502954682	146	2023.48519292498	1167.71688599814	138.708656262201	2276.64241338708	1829.36858286731	160.95927654881	2603.13612041055	1353.55928404395	137	2511.05453453768	1257.46256957616	139	1765.73595825921	894.993580985575	126.011749802608	2194.72711784225	1450.90205665156	127.446887502262	2647.01039768388	305.66656069237	126	839.013628009256	2581.47689610346	134.04072345119	4100.73013220931
358.11901172931	139.440246646637	794.283150163861	1663.272243548	175.953125350376	2471.66943810386	1052.67538098375	138	2206.9074360835	1805.47689954742	146.835192651623	2605.24059755026	1642.43562583104	127.023779221956	3704.15692772464	1500.84982450823	135.8330878928	2242.65969279407	804.207584819221	125	1710.40749556152	1372.44854531953	146	2019.68012737962	1167.97309703091	138.713213038852	2276.65562118563	1829.00802071984	160.976220778044	2603.87631688874	1353.34545782373	137	2510.98263219883	1257.57935172514	139	1766.41650201368	895.593618590902	126.004650252251	2196.1731081213	1451.7215847646	127.480542333141	2649.00331783783	305.884775398303	126	839.900696675614	2583.82271243106	134.061156926116	4102.03959352258
358.088990474571	139.459899110869	794.117727409612	1663.60929515996	175.819859861685	2471.23356178206	1052.56311435097	138	2207.05508833903	1805.19399758748	146.837760862727	2604.36930903585	1641.36506444366	127.011749802608	3701.54962042804	1499.97459353296	135.848443400415	2240.78504401369	803.591845566798	125	1708.96669949518	1370.17923849021	146	2015.5793165081	1168.16959363187	138.715713824103	2276.32462724823	1828.36755366878	160.988250197392	2603.52441033985	1353.12767180613	137	2510.30491501898	1257.62500658607	139	1766.63367422258	896.133503539003	126.001327222897	2197.93184242347	1452.50446287048	127.536246103256	2651.56254129276	306.107919903653	126	841.113596290686	2586.14202076569	134.082403674188	4103.36777380995
358.099957228657	139.486579425752	794.003587509763	1664.41254473338	175.702616735854	2471.04196921609	1052.53287560735	138	2207.10332518114	1805.00298566743	146.84537917001	2603.2699799157	1640.51257276978	127.004650252251	3699.04120192748	1499.14751073762	135.854186542551	2238.52599302011	803.091820564337	125	1707.61122285696	1367.99826399492	146	2011.15483204459	1168.29601612827	138.714386601207	2275.65537869397	1827.48505945624	160.995349747749	2602.11361668221	1352.91483904638	137	2509.07162575363	1257.62508769254	139	1766.42512372034	896.551451058448	126	2199.923846739	1453.15593343807	127.608467996659	2654.54623770728	306.315712029875	126	842.597089331032	2588.2550875449	134.101082211157	4104.69639275947
358.143386877018	139.512728517965	793.926043956705	1665.64968496936	175.603385242121	2471.03713745043	1052.55776687074	138	2207.02537697304	1804.90905642119	146.857761060371	2602.01457901792	1639.88288647173	127.001327222897	3696.47506951351	1498.45641372469	135.848443400415	2235.9090092559	802.719138954995	125	1706.25683560458	1365.96751483883	146	2006.40985074023	1168.33605826853	138.709890009499	2274.69030984128	1826.39834909136	160.998672777103	2599.79433037997	1352.69759387191	137	2507.37144556791	1257.59273819866	139	1765.85854586774	896.803656526264	126	2202.03869356755	1453.59569226983	127.687414321303	2657.76185545041	306.488233860907	126	844.255842154248	2590.00361769413	134.1138973788	4105.98597115873
358.210717719244	139.532127607527	793.892718727952	1667.28451555989	175.522313598003	2471.24854308524	1052.62738676722	138.001327222897	2206.87455726478	1804.93852159419	146.874352818591	2600.77177839846	1639.46509678171	127	3693.75105144202	1497.98126082575	135.8330878928	2233.02993743835	802.477248265627	125	1704.8445112489	1364.14455847243	146	2001.41338430126	1168.27030949981	138.700229488947	2273.52074954042	1825.14629450945	161	2596.83120279061	1352.45170056168	137	2505.34330450366	1257.5327169996	139	1765.03988083003	896.87163732066	126	2204.16245497859	1453.7778169727	127.762630462183	2661.00547619789	306.60974954699	126	845.970959300673	2591.28417589544	134.118459717673	4107.20185177312
358.290016514902	139.540268833784	793.926857402322	1669.25443863696	175.458497418919	2471.77230888731	1052.73561974626	138.004650252251	2206.76129725926	1805.11233023141	146.894267536593	2599.76096525751	1639.23938511791	127	3690.83543260943	1497.78459216515	135.813195892475	2230.03687768906	802.363026137128	125	1703.34984894891	1362.58002639939	146	1996.29212587558	1168.08347605892	138.683122102287	2272.29001398989	1823.76669866401	161	2593.57505738243	1352.14326642861	137	2503.17285983363	1257.44057647227	139	1764.10898904466	896.763465335748	126	2206.18734357371	1453.69464469582	127.823616572302	2664.07962146649	306.670392523355	126	847.614016787553	2592.05975941414	134.115224601697	4108.3054415019
358.37028999287	139.53666618769	794.060323612	1671.47156851689	175.412600220953	2472.73699239297	1052.88039073106	138.011749802608	2206.82389199999	1805.44032194842	146.916269102915	2599.20816100113	1639.17761412715	127	3687.76103742021	1497.90246091101	135.794486355888	2227.10889950168	802.366048377273	125	1701.78462076522	1361.3084981453	146	1991.21877780166	1167.77102586603	138.6575102313	2271.15554228612	1822.3014212444	161	2590.3873386753	1351.73927030355	137	2501.05018459016	1257.30895811485	139	1763.20791950205	896.506034626086	126	2208.01988827191	1453.37068489312	127.863134772505	2666.80988353281	306.668274744989	126	849.063935156432	2592.34933334368	134.105732463407	4109.24587367015
358.440949426672	139.523156659897	794.320354007692	1673.81972240762	175.385067195669	2474.24893576379	1053.0546683743	138.023779221956	2207.18709315594	1805.9123207243	146.938843073884	2599.28988107823	1639.24666422774	127	3684.63081713582	1498.33721113841	135.783693187146	2224.43646746609	802.469134656882	125	1700.19868323022	1360.34557599841	146	1986.39532251967	1167.34989817257	138.623831786216	2270.27055945991	1820.80383927325	161	2587.58880355081	1351.21898449201	137	2499.14732951062	1257.13441773973	139	1762.45926748206	896.141340468043	126	2209.59325732402	1452.85618546074	127.877046597908	2669.06263270712	306.609243207919	126	850.22383981926	2592.22363348961	134.095480699693	4109.97485928681
358.494037612768	139.505372068543	794.716791848156	1676.15580085724	175.376093744731	2476.3404445146	1053.24158376419	138.04072345119	2207.92297064668	1806.48811079686	146.95927654881	2600.08605439539	1639.40756641514	127.001327222897	3681.57014402702	1499.0570843857	135.785020410043	2222.18042243644	802.645936338702	125	1698.65825223083	1359.68298154759	146	1982.01590429033	1166.85945075383	138.585207531628	2269.76260264413	1819.34091054606	161	2585.40986184453	1350.58000375313	137	2497.59001187615	1256.91740208137	139	1761.94107166848	895.716182822198	126	2210.85913770384	1452.21141418635	127.867035702693	2670.73757314582	306.50464633362	126	851.02679813903	2591.78259836192	134.089586400323	4110.43463053689
358.526220890303	139.490439122533	795.237777663708	1678.33053213419	175.387607486014	2478.94227648723	1053.41877012269	138.061156926116	2209.03009709599	1807.10723280519	146.976220778044	2601.55873691957	1639.61954486338	127.004650252251	3678.69705832226	1500.00191304783	135.797809385242	2220.44416708653	802.866714586507	125	1697.22704618349	1359.29683446914	146	1978.24214555363	1166.36950720275	138.548280260205	2269.69874597553	1818.00200623781	161	2583.94913626221	1349.84751258384	137	2496.41910420717	1256.67173481904	139	1761.65827301349	895.273930691772	126	2211.78963553796	1451.49126114544	127.83871212194	2671.77161261126	306.37028999287	126	851.443541960184	2591.13399176634	134.094523927885	4110.58047087666
358.539753155719	139.486594277341	795.844233198148	1680.21095023318	175.421231386846	2481.87413317304	1053.56203799938	138.082403674188	2210.42531901315	1807.70463782991	146.988250197392	2603.54958435374	1639.84142594884	127.011749802608	3676.09315104709	1501.09127848629	135.820295442833	2219.26125777061	803.099859804715	125	1695.95354929224	1359.14935388511	146	1975.18315673577	1165.96566498528	138.52158495579	2270.10079673331	1816.88207655243	161	2583.19634272841	1349.06432148775	137	2495.61114799077	1256.41241828051	139	1761.55628718857	894.85301357655	126	2212.36589346525	1450.74348103382	127.798786836899	2672.12701440637	306.22366516216	126	851.477677827119	2590.3887533461	134.113365622279	4110.37620062936
358.540525129423	139.499010984821	796.476993052303	1681.69475942558	175.477974122037	2484.86940525281	1053.64720281625	138.101082211157	2211.95523859241	1808.21258908467	146.995349747749	2605.80239957301	1640.03881182618	127.023779221956	3673.79403652551	1502.23702670963	135.846444535045	2218.59066173557	803.317226420383	125	1694.86020449592	1359.20358972176	146	1972.8866690381	1165.74018177693	138.51324128874	2270.93993766173	1816.08099478915	160.998672777103	2583.05097521294	1348.28873804343	137	2495.07966947324	1256.15902411767	139	1761.53180422923	894.483375330196	126	2212.5811911687	1450.00511315785	127.753936490042	2671.79851221249	306.080902728005	126	851.163511392161	2589.65453316313	134.146626730595	4109.82826936257
358.536673043322	139.529837784561	797.069103234916	1682.73487881762	175.55817934539	2487.63250634581	1053.66295860895	138.113897378801	2213.43882344269	1808.5851087497	146.998672777103	2608.02301075384	1640.18665328863	127.04072345119	3671.80053717268	1503.35637910923	135.870037881899	2218.34174803698	803.499833836881	125	1693.95021617507	1359.42860189814	146	1971.34471364923	1165.77953193975	138.527562430938	2272.15332425016	1815.68398592286	160.994022524852	2583.36639613585	1347.58192458772	137	2494.70369963811	1255.92992268893	139	1761.46255961735	894.185779677454	126	2212.43061782651	1449.29999892749	127.710519397478	2670.80162166899	305.955250739422	126	850.555351193741	2589.02607422752	134.19066861148	4108.98032314544
358.534586264574	139.574844165399	797.556291655589	1683.33778998425	175.659261556547	2489.88440276193	1053.60706008223	138.118459717673	2214.6977369047	1808.7974331364	147	2609.93063230652	1640.26977401138	127.061156926116	3670.08120517121	1504.3784202822	135.886369820086	2218.38722502521	803.638463237595	125	1693.20758381265	1359.80149756187	146	1970.50204671063	1166.14581129587	138.564680315064	2273.65475303332	1815.75018211375	160.983599945141	2583.98981786518	1346.99721504092	137	2494.35179876483	1255.73594967909	139	1761.2353067506	893.970184934002	126	2211.91691183544	1448.64030795461	127.670956952846	2669.18234956912	305.854173335439	126	849.718821912712	2588.58228590991	134.238351727076	4107.93196542177
358.536673043322	139.625041774804	797.888768446082	1683.55141801888	175.774030163286	2491.40667873704	1053.48706637919	138.113897378801	2215.58764639923	1808.8441680992	147	2611.3042677294	1640.28503206084	127.082403674188	3668.59236861094	1505.25525524656	135.893469370443	2218.59593781714	803.737684721073	125	1692.60793659245	1360.31102468493	146	1970.27170127341	1166.87332003952	138.619409333295	2275.35629686041	1816.30791652298	160.964470975436	2584.80185503899	1346.57623793308	137	2493.91588394199	1255.58335946914	139	1760.77602853153	893.837446068322	126	2211.05331607053	1448.03004812827	127.636786839812	2667.01848306303	305.780719929031	126	848.724019369425	2588.3860092879	134.280698854946	4106.82853574932
358.540525129423	139.670322965208	798.038214774248	1683.44896315345	175.892253819634	2492.08882148876	1053.31547590252	138.101082211157	2216.02982001918	1808.73432610132	147	2612.02960197526	1640.23576991648	127.101082211157	3667.29334795441	1505.96124446687	135.891162658062	2218.85762577767	803.810938228157	125	1692.12762339518	1360.94887823859	146	1970.55081438476	1167.96045928863	138.683684207112	2277.16617482756	1817.34777898275	160.935497326854	2585.72154764104	1346.34197905955	137	2493.31908814625	1255.47275677773	139	1760.06006068924	893.77609553896	126	2209.86020644027	1447.46125449981	127.608901273942	2664.4123243309	305.732896927484	126	847.634474061957	2588.46635409541	134.311525654686	4105.82231177249
358.539753155719	139.699568412335	798.000119438464	1683.11184217932	176.001500946184	2491.93582664241	1053.10849711547	138.082403674188	2216.01271288079	1808.49142648344	147	2612.10333589092	1640.13817435769	127.113897378801	3666.17194289546	1506.50161174397	135.882517733985	2219.11093424943	803.880255824686	125	1691.75363792401	1361.71140189441	146	1971.23405838495	1169.36921904818	138.746313583101	2278.98429219133	1818.82388879107	160.898119622694	2586.69981393821	1346.30192800949	137	2492.5210107574	1255.40570936982	139	1759.11443812149	893.769328934653	126	2208.38116591973	1446.92634543144	127.587231617982	2661.50330595601	305.706061737118	126	846.507558974938	2588.83217288104	134.325274392237	4105.06501088319
358.5275481132	139.707588997281	797.790308522072	1682.61408550148	176.091069416057	2491.06911165053	1052.88215353594	138.061156926116	2215.5882835056	1808.14854753466	147	2611.62872700442	1640.02468463659	127.118459717673	3665.23890571128	1506.91291109502	135.869702566341	2219.34540216568	803.972882868276	125	1691.48070136573	1362.59427319365	146	1972.21317222263	1171.02979990711	138.798253228385	2280.70252149163	1820.65735094148	160.856439399695	2587.70459210407	1346.45244265346	137	2491.52159433695	1255.38993634945	139	1758.01579192855	893.796968504706	126	2206.6904082724	1446.41728082061	127.57239479772	2658.46330674301	305.694714212174	126	845.391561951805	2589.46429197305	134.321948234397	4104.67591418637
358.500015087916	139.693046762812	797.44053239008	1682.02273701535	176.153472892602	2489.71154405575	1052.65659309626	138.04072345119	2214.86323113543	1807.75456012553	147	2610.79408881664	1639.95366433308	127.113897378801	3664.54494618016	1507.26977438193	135.856433837474	2219.60866277347	804.121403517353	125	1691.31654014301	1363.59778743679	146	1973.38065610792	1172.84446304633	138.831242120494	2282.18447042423	1822.73866292466	160.816514114655	2588.675810206	1346.78196467929	137	2490.33252185259	1255.44251048594	139	1756.86043109556	893.83992396162	126	2204.88508567728	1445.93134274494	127.56456968401	2655.48015073917	305.692873039526	126	844.322960524947	2590.31715834797	134.304478076902	4104.71512023751
358.458676704427	139.660312069993	796.993372285453	1681.3910677223	176.186983393033	2488.15164299773	1052.45340497103	138.023779221956	2213.98058045798	1807.36741357191	147	2609.83773536237	1639.99946403656	127.101082211157	3664.1518568389	1507.66489160592	135.84537917001	2219.97985396747	804.355157030394	125	1691.26873116133	1364.716478559	146	1974.62353843792	1174.70021914838	138.84126067428	2283.27699442395	1824.93679138953	160.785020410043	2589.50996705122	1347.2761314991	137	2488.97669570864	1255.58998928715	139	1755.74773123635	893.88476854267	126	2203.07277492249	1445.47020032514	127.563897266542	2652.72656142295	305.695841094557	126	843.327229740301	2591.32415325733	134.277747955369	4105.16830155367
358.411796492582	139.617151668977	796.49330070856	1680.76415881841	176.195850620252	2486.68781207578	1052.29842736671	138.011749802608	2213.0876847597	1807.05313265713	147	2608.99617383975	1640.24150505672	127.082403674188	3664.11144392242	1508.18932527147	135.837760862727	2220.54248546104	804.69408803829	125	1691.33773934791	1365.93440419705	146	1975.82477690318	1176.47905567333	138.828266824552	2283.81961484205	1827.10857295063	160.76631568063	2590.0458308244	1347.91968791473	137	2487.46897720988	1255.86333828227	139	1754.7481362843	893.920216288292	126	2201.35189542524	1445.03279595476	127.568708222535	2650.3318747773	305.698228120269	126	842.41637600771	2592.389901781	134.248502508242	4105.94387319942
358.372246465804	139.573109857665	795.980418342484	1680.17390509943	176.189463360493	2485.58028283948	1052.21421395883	138.004650252251	2212.31368402702	1806.86501124246	147	2608.45806983587	1640.74193892953	127.061156926116	3664.4458125884	1508.90827445633	135.833865428726	2221.35686042268	805.143040254232	125	1691.51084100629	1367.21431037854	146	1976.87194759388	1178.06798316028	138.797581585912	2283.66334010626	1829.10333057467	160.761665428379	2590.07131254174	1348.68946153412	137	2485.80444267672	1256.28310229065	139	1753.88141199257	893.936794468387	126	2199.78448701029	1444.60986651046	127.575297297911	2648.34900095332	305.695169718123	126	841.590067486382	2593.39622916939	134.221930854425	4106.87189940713
358.352777373365	139.538783314741	795.487265268498	1679.64155000918	176.179089624869	2485.00149470202	1052.21655161189	138.001327222897	2211.74087406384	1806.83531596873	147	2608.32480050445	1641.52422501742	127.04072345119	3665.13135821496	1509.83209193084	135.833110610476	2222.43802220026	805.683414560829	125	1691.76080082152	1368.49303479745	146	1977.6690534901	1179.3735574326	138.756998020674	2282.71607698402	1830.7894008184	160.768620355184	2589.38099452766	1349.56231081996	137	2483.98228908727	1256.85856831235	139	1753.12617668386	893.921915018475	126	2198.38850760712	1444.17976368298	127.579663333763	2646.75432987746	305.68182806541	126	840.839988743611	2594.20893655931	134.202418414088	4107.7392464089
358.363199953077	139.520345646271	795.032964072789	1679.17226268756	176.17813285306	2485.01343386703	1052.30704036131	138	2211.39037679992	1806.95692350011	147	2608.59068853223	1642.56277439771	127.023779221956	3666.0964720724	1510.91095922533	135.833629367401	2223.74775716648	806.275622181045	125	1692.04827740794	1369.68159311754	146	1978.1492970359	1180.32423337575	138.717973922157	2280.95816750531	1832.05467395712	160.780985090091	2587.81723355336	1350.50054260036	137	2482.00080212257	1257.57138203045	139	1752.4240056467	893.861171710878	126	2197.13585786909	1443.71578076541	127.576791058196	2645.45886992376	305.654334594846	126	840.154323965134	2594.70177546006	134.191477077452	4108.31831505388
358.409102713265	139.522912178687	794.625775189981	1678.7707916722	176.196139747556	2485.56793599157	1052.47600217809	138	2211.22125393038	1807.19575402192	147	2609.15396789124	1643.78388719259	127.011749802608	3667.27365635533	1512.0411902896	135.833981838415	2225.22413124681	806.86471366251	125	1692.34940429483	1370.67667088	146	1978.30390703399	1180.87700018853	138.689801568211	2278.46991048054	1832.82825362731	160.791936726549	2585.33659268979	1351.4621130096	137	2479.88707542348	1258.38324906084	139	1751.71762615007	893.736609486334	126	2195.97261572174	1443.18589022784	127.564409167835	2644.34790014828	305.610643088624	126	839.523988288274	2594.76758817139	134.18761264307	4108.42348859607
358.486926893126	139.544498932027	794.263765162748	1678.43147537757	176.237540353814	2486.5345416156	1052.69900846902	138	2211.14935329105	1807.48582814528	147	2609.85081436047	1645.08568859591	127.004650252251	3668.60337901945	1513.09229984455	135.833629367401	2226.78926625227	807.391852763948	125	1692.65631084842	1371.38101002621	146	1978.17501386336	1181.01931153863	138.679375860014	2275.42793409633	1833.08656405613	160.796239245388	2582.04074930977	1352.39939352422	137	2477.70451382401	1259.23892299043	139	1750.97725919315	893.535508739737	126	2194.84065327329	1442.57043104521	127.544398600796	2643.31719695115	305.550000112259	126	838.944027086272	2594.35374179578	134.188131330422	4107.94447315535
358.590034162097	139.579758975285	793.94024851681	1678.15286770718	176.302549366032	2487.73419398402	1052.9471809224	138	2211.0675532951	1807.75285330273	147	2610.49540043661	1646.36228651725	127.001327222897	3670.0565560233	1513.94074865527	135.833110610476	2228.37352351572	807.809362050363	125	1692.98393022734	1371.72467663527	146	1977.85304114049	1180.76778312791	138.688474345314	2272.0888559514	1832.85580978267	160.791936726549	2578.18696077826	1353.26533742422	137	2475.55766439489	1260.07811501378	139	1750.22891579339	893.254124145777	126	2193.69931267438	1441.86920118692	127.522199888089	2642.30642514064	305.474293710764	126	838.414556693886	2593.47123952614	134.188136137596	4106.86991176879
358.707534186991	139.620126964919	793.646727787162	1677.93146760987	176.385590690195	2488.98964028455	1053.1884776188	138	2210.87744469531	1807.92207143281	147	2610.92670352542	1647.53166474177	127	3671.65636344336	1514.50158229695	135.833865428726	2229.94155838961	808.093166558835	125	1693.37587930004	1371.68503810093	146	1977.46896290578	1180.16694672055	138.713323669906	2268.76376255565	1832.21021412443	160.780985090091	2574.17364969948	1354.02097701042	137	2473.60169153018	1260.84992338074	139	1749.57315422397	892.906553854104	126	2192.53493919485	1441.11402535676	127.506600037206	2641.31107268126	305.389624110262	126	837.935799898483	2592.21370760655	134.186140331139	4105.27873302139
358.828009925489	139.656989040639	793.376996727336	1677.7618779686	176.478153407545	2490.15478670978	1053.39599580767	138	2210.50685749622	1807.9296451681	147	2611.03212663169	1648.55496431557	127	3673.44886418459	1514.74872475417	135.837760862727	2231.48410432048	808.248238324814	125	1693.88573777491	1371.29424575212	146	1977.15647490068	1179.28406058072	138.746575440963	2265.77709566248	1831.26223778207	160.768620355184	2570.48824872964	1354.64118426465	137.001327222897	2472.02841599606	1261.52343868867	139.001327222897	1749.18345414112	892.529718305329	126	2191.36964474238	1440.3759635374	127.505962387232	2640.39008596191	305.305747986201	126	837.507476998937	2590.75282113174	134.179704557167	4103.32338473873
358.942876493951	139.682971916513	793.131326544032	1677.63748535582	176.57204502648	2491.14721402602	1053.55225197714	138	2209.92994120519	1807.73452257111	147	2610.767387153	1649.44550580346	127	3675.49129421351	1514.71682699981	135.84537917001	2233.00984277238	808.309483707455	125	1694.56525410705	1370.6345913039	146.001327222897	1977.02911219325	1178.205088929	138.77712539331	2263.42201765627	1830.14919309498	160.761665428379	2567.63863600632	1355.12105346774	137.004650252251	2471.04386571735	1262.0995867576	139.004650252251	1749.28583387318	892.179436999581	126	2190.26413885992	1439.75686269354	127.526229645819	2639.66133687734	305.236418278605	126	837.132220223608	2589.31274793113	134.170932971471	4101.2079742136
359.045547426727	139.69488793546	792.914207720864	1677.54363650445	176.660312069993	2491.94406228059	1053.64901274496	138	2209.1656075862	1807.3150777223	147	2610.14500647179	1650.25685968357	127	3677.82873498466	1514.48178042174	135.857761060371	2234.52765761936	808.332326929719	125	1695.45427926275	1369.81559015163	146.005977475148	1977.15303172648	1177.02843496686	138.795970146617	2261.92946147672	1829.01635855543	160.76631568063	2566.08136343035	1355.47948010246	137.011749802608	2470.84387875158	1262.60913197702	139.011749802608	1750.12561831014	891.928458363153	126	2189.29609939042	1439.38441763989	127.567756963323	2639.2640918672	305.197970402235	126	836.812082675613	2588.14660380531	134.161455822713	4099.12975942137
359.132482440169	139.691981397777	792.737302698524	1677.45361854087	176.738153405309	2492.57588980268	1053.68311939234	138	2208.27567688496	1806.66460670419	147	2609.22839076596	1651.06638722698	127	3680.47915647365	1514.13424257465	135.874352818591	2236.02673983626	808.380219899932	125	1696.57519166562	1368.95045404581	146.016400054859	1977.54137120104	1175.85655607133	138.796783419763	2261.42502561721	1827.99844867501	160.785020410043	2566.1311838784	1355.7547874876	137.023779221956	2471.56106465577	1263.1067896497	139.023779221956	1751.9032269568	891.846582331276	126	2188.55342422026	1439.37839703626	127.623732531983	2639.34306174837	305.204639178618	126	836.555054845305	2587.47150242445	134.153555464955	4097.2619885321
359.203680220086	139.679528953077	792.609784515753	1677.33493240289	176.803872670298	2493.07990697294	1053.66164278282	138	2207.33172105831	1805.79690813058	147	2608.08917421919	1651.93626229501	127	3683.39880592167	1513.73883020168	135.894267536593	2237.45184767893	808.506507737876	125	1697.92013145021	1368.12027167488	146.036856247461	1978.14150243499	1174.79043960722	138.778859701044	2261.92098706325	1827.20400251385	160.816514114655	2567.90474859022	1355.99981758601	137.04072345119	2473.22869035013	1263.65767869917	139.04072345119	1754.72080409459	891.986969950058	126	2188.11917161309	1439.8265044854	127.683549817348	2640.01869889647	305.267123327631	126	836.380656479951	2587.42756907773	134.148210852555	4095.72695654354
359.261592602917	139.661110236143	792.535152034395	1677.15313695365	176.857411289132	2493.47674034543	1053.59678337374	138	2206.39901469662	1804.73969932569	147	2606.79326434492	1652.89458603323	127	3686.49039401062	1513.31565697576	135.916269102915	2238.70358769201	808.742216453114	125	1699.45763763947	1367.35974098965	146.069152925397	1978.86051808479	1173.91689489406	138.746033966361	2263.30240023263	1826.70066795378	160.856439399695	2571.27645515687	1356.26771121258	137.061156926116	2475.73927729291	1264.31721765992	139.061156926116	1758.52418920012	892.36900131197	126	2188.05284022914	1440.75397857645	127.734813220501	2641.35963973873	305.38690470598	126	836.316363223885	2588.03940449733	134.144887823202	4094.57499416319
359.310001990827	139.641104476277	792.508074386964	1676.88093517233	176.899869048056	2493.7428057627	1053.50357969119	138	2205.5049046825	1803.53337447325	147	2605.37596860835	1653.92768766562	127	3689.59352587826	1512.84103725078	135.938843073884	2239.64684320459	809.093652275213	125	1701.1297556978	1366.66069767155	146.114957402811	1979.57750871767	1173.30411187514	138.706136206171	2265.35263799947	1826.51351191626	160.898119622694	2575.89620662968	1356.60404839909	137.082403674188	2478.84772759027	1265.11756396354	139.082403674188	1763.09175762733	892.973029745486	126	2188.39664361321	1442.11306881458	127.765904647449	2643.38834675946	305.558640788717	126	836.402168467601	2589.21236987753	134.141805662347	4093.81166862558
359.355201905338	139.622138248142	792.514340316398	1676.51650186472	176.931538375839	2493.82782457504	1053.40345447304	138	2204.64152071707	1802.23704184928	147	2603.85709721085	1654.98159820933	127	3692.49859011939	1512.25964976985	135.95927654881	2240.13089671289	809.540349594892	125	1702.85424341284	1365.98189758767	146.171990074511	1980.16278476778	1172.98653787255	138.668839174479	2267.77493730175	1826.61581587404	160.935497326854	2581.23078328687	1357.03223656432	137.101082211157	2482.18725991865	1266.05295425564	139.101082211157	1768.04991748549	893.738995585283	126	2189.17197787812	1443.78222454506	127.772190924661	2646.08292518602	305.767642903526	126	836.683596364619	2590.74261483123	134.137676600757	4093.41062681047
359.403392437003	139.603822551582	792.537613366904	1676.09476030533	176.953299073663	2493.69147094776	1053.32304728286	138	2203.777776798	1800.92891119903	147	2602.26186369699	1655.98900705783	127	3695.00296180301	1511.5213979159	135.976220778044	2240.03704907008	810.047583984141	125	1704.54400690323	1365.28169968001	146.235959139143	1980.51089351057	1172.96418366191	138.64012702462	2270.24238469405	1826.93665897048	160.964470975436	2586.65316977357	1357.55029017688	137.1138973788	2485.3297902438	1267.08167136964	139.113897378801	1772.93411878638	894.579067452853	126	2190.38202669203	1445.58728642349	127.755530911825	2649.38520655303	305.994022524852	126	837.201270711645	2592.3672557123	134.130209520281	4093.34782831997
359.460246844281	139.584313586014	792.565511735905	1675.68521492519	176.964470975436	2493.34157444147	1053.29200164289	138	2202.88382241441	1799.70080910215	147	2600.65331258263	1656.88473463927	127	3696.9257061103	1510.6013239105	135.988250197392	2239.29943352726	810.572429459676	125	1706.11127898471	1364.53440170493	146.29991573803	1980.54842761735	1173.20297483999	138.624422104905	2272.43887898949	1827.37197416401	160.983599945141	2591.53178076957	1358.13170884369	137.118459717673	2487.84493521492	1268.12832389001	139.118459717673	1777.26086076909	895.396961315023	126	2192.00721572976	1447.33345650435	127.723487520242	2653.20161981014	306.214629818718	126	837.975880449067	2593.81833005264	134.118547631051	4093.61973537575
359.528534320374	139.561342830029	792.593774576111	1675.38191284022	176.964470975436	2492.86356086426	1053.34025049324	138	2201.95615664485	1798.65131428109	147	2599.14580335971	1657.63757359376	127	3698.16872571725	1509.53151020696	135.995349747749	2237.94086654733	811.080113227831	125	1707.48929411433	1363.75877020809	146.355484221852	1980.25794812819	1173.63598573935	138.61917019311	2274.10420597846	1827.79057340076	160.995349747749	2595.32634440024	1358.72575072205	137.113897378801	2489.37378125796	1269.09449655873	139.113897378801	1780.60959790404	896.101125399923	126	2193.97903479857	1448.8316602838	127.686099446687	2657.38098397809	306.404502963822	126	838.988933084447	2594.86447021497	134.102409434054	4094.22063319747
359.609437186321	139.533431141287	792.631596934374	1675.28820093522	176.954626296559	2492.43363567452	1053.49673419247	138	2201.04162556999	1797.87795042912	147	2597.91628212177	1658.24899040883	127	3698.70678200872	1508.39273417112	135.998672777103	2236.06395472656	811.544999471664	125	1708.63026333876	1363.01148552747	146.395923456643	1979.67231197067	1174.17899800036	138.618631846995	2275.07374301319	1828.05909635988	161.003323029354	2597.665499593	1359.27055415259	137.101082211157	2489.69328016365	1269.87544580341	139.101082211157	1782.69109527862	896.624861247779	126	2196.1765925269	1449.93426982731	127.653395753487	2661.716822503	306.543942368623	126	840.178479983949	2595.35784309486	134.082403674188	4095.15203567311
359.700058069526	139.500610144205	792.693614716697	1675.48184889385	176.937515850987	2492.26991807712	1053.77828727333	138	2200.21851328375	1797.45395816474	147	2597.16103955186	1658.75005121707	127	3698.59633854119	1507.29832770886	136	2233.84193691629	811.953392390519	125	1709.51298241206	1362.38033579781	146.417258118094	1978.87598022445	1174.74202663947	138.613725249479	2275.29602751943	1828.06262333807	161.011749802608	2598.39282624558	1359.70488307595	137.082403674188	2488.74777325676	1270.37812975205	139.082403674188	1783.38430600509	896.932925084105	126	2198.4059942879	1450.55624845143	127.629704444909	2665.93200138378	306.619246492454	126	841.432507072575	2595.25726493368	134.061156926116	4096.37007167238
359.79571018864	139.465765954962	792.795575716847	1675.99801474165	176.918923548709	2492.59602591587	1054.18751275659	138	2199.59146574518	1797.41881023557	147	2597.06964136618	1659.19249929195	127	3697.94428260438	1506.37413296651	136	2231.48394939135	812.30224867129	125	1710.13388629721	1361.96172339272	146.420755091931	1977.98278592753	1175.24137797943	138.595809396847	2274.83083707229	1827.72045268814	161.023779221956	2597.57501831171	1359.97890490405	137.061156926116	2486.65304991145	1270.53597585718	139.061156926116	1782.7458196938	897.027181417195	126	2200.43252179924	1450.68522473969	127.616086303941	2669.71990078886	306.626693776224	126	842.611130963024	2594.62926968155	134.042050674087	4097.80549057243
359.890927351785	139.433263505968	792.952556514571	1676.81672913775	176.904895263991	2493.59045145807	1054.70982004737	138	2199.26893380393	1797.77026638223	147	2597.79007352292	1659.63539413793	127	3696.87654918436	1505.73113770543	136	2229.19488084575	812.597516122987	125	1710.50017885381	1361.84352172019	146.411534634721	1977.10979927735	1175.60786350167	138.55906378044	2273.82114882244	1827.00381924383	161.04072345119	2595.46786548048	1360.06654020609	137.04072345119	2483.66556487596	1270.32315124682	139.04072345119	1780.9822672854	896.940343761662	126	2202.00586670466	1450.38085047235	127.608906081115	2672.77475838584	306.571842786083	126	843.565233843137	2593.63180571937	134.028429474207	4099.34797928046
359.980181457372	139.406708225448	793.168918707	1677.86358422044	176.903829898955	2495.3341968155	1055.31377810966	138	2199.32654557232	1798.45990422875	147	2599.3816219678	1660.12612050067	127	3695.5095400674	1505.43817088102	136	2227.14227275607	812.846771213453	125	1710.62176050437	1362.07556124663	146.39767478189	1976.35319444629	1175.79246353049	138.502106352788	2272.44737486758	1825.93225422551	161.061156926116	2592.4408506337	1359.96409374058	137.023779221956	2480.1138662271	1269.75713519451	139.023779221956	1778.3924738346	896.730479929479	126	2202.90623032696	1449.75823232048	127.602473366057	2674.83915909472	306.468390704669	126	844.165061109232	2592.48138132423	134.023499605216	4100.86054753572
360.061685982864	139.391813450393	793.437744435076	1679.03045985313	176.923046782039	2497.79033619445	1055.95876420282	138	2199.78657743764	1799.40740657118	147	2601.79460919441	1660.70122352056	127	3693.92986624688	1505.51965724203	136	2225.43025909254	813.061004556278	125	1710.50723490513	1362.66595426413	146.386463325397	1975.76928662929	1175.76904285129	138.429718173473	2270.87465417242	1824.5719197355	161.082403674188	2588.88354846201	1359.69535326641	137.011749802608	2476.32099592798	1268.89758304312	139.011749802608	1775.29397543853	896.459068421547	126	2202.98396491741	1448.94881607478	127.592050786346	2675.74146783312	306.333334491175	126	844.322118705941	2591.3861780221	134.029756697104	4102.21228510951
360.137160922692	139.391358280054	793.733573142476	1680.20176474369	176.968332572101	2500.7888968939	1056.60522867913	138	2200.58822332249	1800.51286837375	147	2604.84701995574	1661.37877310424	127	3692.15618638339	1505.94886269655	136	2224.07171360193	813.250425508317	125	1710.14710817103	1363.57344555004	146.382052213332	1975.35092859092	1175.52773818681	138.349939693721	2269.20097795717	1823.0059692775	161.101082211157	2585.10127171807	1359.29259936882	137.004650252251	2472.52767869515	1267.82519597444	139.003323029354	1771.94551052808	896.182037560021	126	2202.17845511776	1448.07542338004	127.573377056551	2675.40320523866	306.182956828598	126	844.003525724354	2590.51689880584	134.046700926337	4103.29510408329
360.212263092964	139.404525918711	794.01628054551	1681.28010213779	177.042304665861	2504.04421367179	1057.21808322346	138	2201.57913803026	1801.67112192416	147	2608.22433727238	1662.15409863904	127	3690.12232454761	1506.65099418657	136	2222.98394926804	813.420149277429	125	1709.50914542783	1364.71306545131	146.384169991698	1975.02421226251	1175.0773139093	138.272815386604	2267.43415152445	1821.32489293497	161.112570155904	2581.25089210517	1358.79610091169	137.001327222897	2468.84804432402	1266.63188556069	138.996676970646	1768.5019103615	895.934774740384	126	2200.51707162529	1447.21736463412	127.545606155648	2673.83240532353	306.029663221504	126	843.231769527355	2589.9602829459	134.072906728724	4104.05955018096
360.293357454758	139.428388250802	794.230233486849	1682.20169428257	177.142059654121	2507.19021839942	1057.76935657706	138	2202.51997919476	1802.7785010764	147	2611.4992558207	1663.00342934929	127	3687.69483047429	1507.51838459799	136	2222.00915153716	813.570927617452	125	1708.54442470114	1365.97241395746	146.388296887365	1974.66645333438	1174.44311395687	138.208846321973	2265.49553922282	1819.61177272759	161.113809465422	2577.33007829951	1358.2432570273	137	2465.26935415318	1265.40068094455	138.988250197392	1765.00184309623	895.729308377932	126	2198.08040801539	1446.40277323589	127.510096789847	2671.08551675113	305.881540282327	126	842.071742823945	2589.71921133762	134.106182896144	4104.50196809491
360.384504014747	139.457366636985	794.313707929551	1682.93186470306	177.259738361099	2509.82105042405	1058.23386191602	138	2203.10861482485	1803.73124061008	146.998672777103	2614.17735437262	1663.87555242528	127	3684.67740369695	1508.41647616647	135.998672777103	2220.93547242479	813.693568871728	125	1707.19102011383	1367.22341965587	146.387239784325	1974.12569174386	1173.66919847053	138.166308581399	2263.25217848621	1817.93995722102	161.102147576192	2573.21517572735	1357.66729168807	137	2461.68463037056	1264.19645934477	138.976220778044	1761.39486916967	895.559777536854	126	2194.98145670745	1445.61853447896	127.470983099264	2667.25459837094	305.742542020895	126	840.617116733452	2589.72961885723	134.141805662347	4104.68324275287
360.487265919814	139.485076579684	794.203220122063	1683.46222880971	177.382319412218	2511.54527665542	1058.59075794622	138	2203.02285065813	1804.44007484296	146.995349747749	2615.76323026714	1664.70107174407	127	3680.87797644061	1509.20518413354	135.995349747749	2219.55468141931	813.772342166632	125	1705.39875345348	1368.3456754989	146.374683949481	1973.26781999928	1172.81989585963	138.148037129269	2260.58140367032	1816.38222698557	161.077302989201	2568.76654349066	1357.10069213851	137	2457.97156861257	1263.06596252867	138.95927654881	1757.61162983502	895.408805785907	126	2191.33703400769	1444.82935018517	127.432338560735	2662.45841806729	305.614878749089	126	838.973037064084	2589.89358440323	134.176381527814	4104.69557717908
360.595909728079	139.506349520201	793.842486313035	1683.78497507684	177.493944137169	2512.02613453016	1058.81671077077	138	2201.97072978756	1804.82340169961	146.988250197392	2615.8332931727	1665.39914159431	127	3676.17641030018	1509.75747143998	135.988250197392	2217.71837835877	813.787890044941	125	1703.15954541396	1369.24326649497	146.346516333135	1972.02153918713	1171.98266207025	138.154788946214	2257.43480191638	1815.02812504988	161.041680222999	2563.93385824513	1356.58420980206	137	2454.0685003014	1262.04711299202	138.938843073884	1753.63511808285	895.265537191352	126	2187.26002967966	1444.01633851528	127.399248385882	2656.85799188092	305.501858160448	126	837.242676391578	2590.12765522028	134.205513644112	4104.63208913331
360.702912431051	139.518506407647	793.192410823485	1683.89139194909	177.579147484127	2511.0349700669	1058.8960639856	138	2199.75529368026	1804.83218999374	146.976220778044	2614.12761640649	1665.89822171458	127	3670.58524312084	1509.98434921	135.974893555147	2215.38461281596	813.725532167227	125	1700.52598469867	1369.8620762267	146.302033516396	1970.41053323048	1171.26044958928	138.183312162058	2253.87756071653	1813.98598393475	161	2558.8337828468	1356.16884071648	137.001327222897	2450.02450545107	1261.17569471575	138.917596325812	1749.55056416648	895.129204664818	126	2182.87786006163	1443.19506194155	127.375746011318	2650.69573325051	305.409295443098	126	835.526297911848	2590.38979522419	134.226729392565	4104.57009139554
360.800620398868	139.522611710527	792.23752400505	1683.76864975029	177.626172319525	2508.47264793648	1058.82346866862	138	2196.3122042463	1804.45855832753	146.95927654881	2610.59829460123	1666.14483923189	127	3664.27673548879	1509.84039821347	135.953299073663	2212.63414424788	813.577531888974	125	1697.61618378641	1370.18748357665	146.245970034358	1968.55189825487	1170.75870430465	138.227732706402	2250.11134528193	1813.37443763201	160.958319777002	2553.78229595394	1355.91345977405	137.004650252251	2446.02202465399	1260.49299003175	138.898917788843	1745.5676808366	895.020235647891	126	2178.35808332746	1442.4318454539	127.363016719226	2644.32739178114	305.346710311538	126	833.924286688302	2590.70105204689	134.238758811913	4104.55644265695
360.884073407527	139.52052493178	790.99732358502	1683.42127727449	177.628168125982	2504.41046706195	1058.61836662253	138	2191.7532398564	1803.75918440436	146.937515850987	2605.46103196944	1666.1306501148	127	3657.59099053822	1509.34613215491	135.922443019025	2209.66792337212	813.353063926867	125	1694.60851155771	1370.24873252185	146.184284051494	1966.64184742282	1170.57100750898	138.279747595733	2246.44154603815	1813.30940445359	160.922697010799	2549.24318369811	1355.8846138906	137.011749802608	2442.34124871417	1260.05214829378	138.8861026212	1741.9855462434	894.973740689098	126	2173.91696289613	1441.83562379973	127.361194498113	2638.21077674737	305.325747779864	126	832.532109620189	2591.13874371537	134.241586843051	4104.592964733
