Light	Light	Light	Light	Light	Light	Light	Light	Light	Light	Light	Light	Light	Light	Light	Light	Light	Light	Light	Light	Light	Light	Light	Light	Light	Light	Light	Light	Light	Light	Light	Light	Light	Light	Light	Light	Light	Light	Light	Light	Light	Light	Light	Light	Light	Light	Light	Light
Optode1-730nm	Optode1-Ambient	Optode1-850nm	Optode2-730nm	Optode2-Ambient	Optode2-850nm	Optode3-730nm	Optode3-Ambient	Optode3-850nm	Optode4-730nm	Optode4-Ambient	Optode4-850nm	Optode5-730nm	Optode5-Ambient	Optode5-850nm	Optode6-730nm	Optode6-Ambient	Optode6-850nm	Optode7-730nm	Optode7-Ambient	Optode7-850nm	Optode8-730nm	Optode8-Ambient	Optode8-850nm	Optode9-730nm	Optode9-Ambient	Optode9-850nm	Optode10-730nm	Optode10-Ambient	Optode10-850nm	Optode11-730nm	Optode11-Ambient	Optode11-850nm	Optode12-730nm	Optode12-Ambient	Optode12-850nm	Optode13-730nm	Optode13-Ambient	Optode13-850nm	Optode14-730nm	Optode14-Ambient	Optode14-850nm	Optode15-730nm	Optode15-Ambient	Optode15-850nm	Optode16-730nm	Optode16-Ambient	Optode16-850nm
363.071592712939	139.388301487024	794.885756546508	1671.26528484471	175.723863483927	2501.22124156774	1069.94817892282	138	2207.46937776582	1834.73014210349	146.938843073884	2666.26438298925	1680.06252964164	127.33343930763	3669.70464614725	1524.05255191502	136	2248.02976664869	809.469882140289	125	1674.20152532465	1381.35699978907	145.373439298937	2004.55977806744	1217.91210852426	138.522200026031	2354.95642179537	1870.66457387508	160.101082211157	2667.07689501066	1397.98247568231	137.316061801114	2550.5045119972	1404.61632267739	138.101082211157	1941.43917642804	910.121822550564	126.206138224917	2244.11708693864	1594.27192486314	127	2922.46221674505	312.67550497398	126	866.66796151893	2499.55416895925	134.321269351015	4108.26085774275
363.101255934443	139.388436773317	795.009776455422	1672.47590145697	175.685239229338	2504.68780428911	1070.10055617884	138	2207.77387826844	1834.76863033496	146.95927654881	2667.80228734017	1679.84395028318	127.297383264146	3670.65542847247	1523.27111711754	136	2249.6234581042	809.364766123787	125	1675.27541188046	1380.09496444735	145.427981165965	2005.03884266032	1217.07650243008	138.51730115666	2356.37762256788	1869.45310044638	160.082403674188	2669.50864396201	1397.4394711215	137.314760770662	2552.51243532001	1404.39784343914	138.113897378801	1944.06126129845	910.003865303844	126.218590669617	2245.5159541541	1593.96155860016	127	2925.32098661886	312.64357568822	126	867.183611357799	2499.92704785226	134.308721244315	4107.04627367948
363.10338132349	139.397007877018	795.046198814985	1673.21893744251	175.66656069237	2507.51795155518	1070.1350162527	138	2207.83335199524	1834.87642564186	146.976220778044	2669.75589181955	1679.51310573521	127.244642811461	3671.37800274831	1522.65012090985	136	2251.48362280646	809.193580805019	125	1676.21022497095	1379.07687283454	145.490177264672	2005.88187024745	1216.37769514617	138.498050215044	2357.87186823308	1868.38398908195	160.061156926116	2671.9503148034	1396.89866339665	137.29351402259	2554.38420281346	1404.11594369558	138.118459717673	1946.41016238635	909.847990712605	126.231379644816	2246.52845939835	1593.57262491986	127	2927.65819201595	312.596086106298	126	867.57203468591	2500.23737897201	134.297209540859	4105.96056816835
363.090130574698	139.411008706459	795.006765952943	1673.55410523837	175.671123031242	2509.81264840329	1070.09783290644	138	2207.73288243071	1835.04853606856	146.988250197392	2672.05226025646	1679.14801477695	127.184284051494	3671.95246281938	1522.25468972579	136	2253.62030882808	808.989982516092	125	1676.97700097385	1378.3462124073	145.552819106406	2007.04818446595	1215.89992057539	138.467613593525	2359.41082081257	1867.5367218256	160.039396228293	2674.36659503753	1396.46665878756	137.255703041147	2556.13285917476	1403.8886913893	138.113897378801	1948.55663931041	909.700716891065	126.24008603481	2247.21406891918	1593.14111101263	127	2929.44447284999	312.557201893732	126	867.876070167337	2500.69403601503	134.290687891336	4105.08243971351
363.074925252857	139.425155834601	794.904065116593	1673.58743742452	175.698054396982	2511.71244123015	1070.04003711938	138	2207.54481918067	1835.28179085089	146.995349747749	2674.56271135434	1678.82046820531	127.125659599262	3672.42168600281	1522.11547878857	136	2255.96700925802	808.786131144397	125	1677.54674898386	1377.91524745867	145.606962026035	2008.43542381899	1215.6821227651	138.432278172207	2360.94627085303	1866.93375087657	160.019128969705	2676.69841747609	1396.21480015497	137.207265107301	2557.75527824736	1403.79585021695	138.101082211157	1950.55843263472	909.59357166089	126.241586843051	2247.6191371832	1592.68134010288	127	2930.6241712147	312.549835144489	126	868.138499262521	2501.47317381786	134.293515922474	4104.43418703775
363.069730826232	139.431457288382	794.749545825998	1673.44147307536	175.742542020895	2513.35147155625	1070.00051396343	138	2207.31086258014	1835.55960398414	146.998672777103	2677.10962039578	1678.57579331312	127.076252475754	3672.77018653798	1522.21249036144	136	2258.37706907589	808.605212887512	125	1677.88685541551	1377.76224951254	145.643370540533	2009.88605977535	1215.71223491281	138.399517633226	2362.41074552466	1866.54094464416	160	2678.8634557974	1396.16581593679	137.155310402913	2559.21685390435	1403.85410664927	138.082403674188	1952.42924197314	909.534214249233	126.236211231033	2247.74997960746	1592.17714069924	127	2931.10528787058	312.588990504283	126	868.384057623014	2502.66775988093	134.306691379327	4103.98621888773
363.080902728005	139.424357668451	794.55453491565	1673.22876497101	175.797037411537	2514.82459281253	1069.9986413735	138	2207.03361261351	1835.84985501664	147	2679.48916870774	1678.43059567476	127.040179276815	3672.92011247276	1522.48263823752	136	2260.63412852843	808.459473059332	125	1677.96456626504	1377.83488456159	145.654949527144	2011.20328479691	1215.92793192686	138.376000269131	2363.70715038223	1866.2773750662	159.980871030295	2680.75792830017	1396.28687553962	137.106530629557	2560.43642772165	1404.01030311835	138.061156926116	1954.12192801959	909.504435038429	126.225536559432	2247.57455940327	1591.58811128182	127	2930.79159630435	312.678322912831	126	868.612797069349	2504.2590520892	134.327416936738	4103.65285888145
363.109185075351	139.399246485997	794.330355869382	1673.03015038907	175.853093652666	2516.16693706864	1070.03033807451	138	2206.68676868591	1836.09950914197	147	2681.497269591	1678.38574423635	127.017727277756	3672.8048275084	1522.83725837005	136	2262.51477780398	808.357862288509	125	1677.77791886021	1378.07119502428	145.63725047966	2012.20925199405	1216.2394401986	138.364799182034	2364.74545035178	1866.05243185543	159.960603771707	2682.30865399615	1396.51005342324	137.065829896043	2561.32430167438	1404.16369684373	138.04072345119	1955.56515284723	909.464540118594	126.213242582449	2247.04533519175	1590.85827051834	127	2929.63408181849	312.808366354716	126	868.798829211241	2506.10530515381	134.352152930503	4103.33009016691
363.150865298349	139.356811444749	794.093185111755	1672.89123392682	175.90331404932	2517.36389188584	1070.0792296579	138	2206.24485586052	1836.25237129053	147	2682.97850654184	1678.43640316043	127.005977475148	3672.43698562211	1523.18357362664	136	2263.85182244733	808.308702955166	125	1677.3810871905	1378.40911696804	145.5898319217	2012.79864669994	1216.55243991704	138.36679324023	2365.47386692751	1865.7963340958	159.938843073884	2683.51622087065	1396.75381793077	137.035529024564	2561.82583631194	1404.19980319085	138.023779221956	1956.70014727854	909.374429018651	126.203204162384	2246.136302848	1589.95241159577	127	2927.68836851035	312.95927654881	126	868.903360355617	2507.99367678579	134.374940245121	4102.92264434744
363.201213163101	139.301242960926	793.862521622626	1672.82947638399	175.942876493951	2518.37186638093	1070.12813862767	138	2205.70436245016	1836.27194657572	147	2683.8599829017	1678.58468310639	127.001327222897	3671.93451071213	1523.44568914722	136	2264.57340984777	808.323760680131	125	1676.88749371252	1378.80002428638	145.517811272503	2012.9625554147	1216.79017524864	138.379067002845	2365.91050889572	1865.47777051983	159.917596325812	2684.47810075356	1396.94951974374	137.016400054859	2561.953893015	1404.02538392706	138.011749802608	1957.51705312103	909.203751514891	126.199362445678	2244.88587870153	1588.86894230322	127	2925.15410365189	313.106697497211	126	868.889824610389	2509.68213155603	134.390562813679	4102.38260930928
363.257813312566	139.240609391394	793.660535887742	1672.8457754536	175.970243302896	2519.13975341353	1070.17288272671	138	2205.09647104787	1836.15770544361	147	2684.16769006958	1678.85127885117	127	3671.53817585462	1523.5857518971	136	2264.73758331467	808.421944669706	125	1676.46948948173	1379.22002653895	145.428932425177	2012.81246726707	1216.91877741591	138.398317944461	2366.15306626522	1865.1273670312	159.898917788843	2685.37998578288	1397.06672866963	137.005977475148	2561.80323984545	1403.60474406592	138.004650252251	1958.07059981702	908.951661902964	126.2035064968	2243.40975536814	1587.65996841383	127	2922.36219921678	313.227523610372	126	868.737758278042	2510.96929591352	134.395140142083	4101.71001967875
363.320564522523	139.18373987712	793.508771522746	1672.93167016059	175.986922974495	2519.62435365708	1070.22422679426	138	2204.49105589807	1835.95086178402	147	2684.02981673993	1679.27124649303	127	3671.57807619574	1523.60857202837	136	2264.52726351555	808.625287057567	125	1676.33313997302	1379.66689548159	145.335037677756	2012.56211607303	1216.94730844286	138.418725226942	2366.36456614622	1864.81612907847	159.8861026212	2686.45784818883	1397.113799641	137.001327222897	2561.53341411836	1402.96415277995	138.001327222897	1958.46924947964	908.648416725578	126.214712391071	2241.89736659012	1586.42883170725	127	2919.73453682003	313.30527703231	126	868.451326512413	2511.74096377516	134.385912561428	4100.94775707227
363.393471251247	139.140063847664	793.423328451153	1673.08655676704	175.995349747749	2519.80126463948	1070.30987368773	138	2203.97769659578	1835.7396464453	147	2683.6507272914	1679.88927677855	127	3672.37620755569	1523.5626094025	136	2264.19593014844	808.954241791503	125	1676.66427858684	1380.15983504625	145.249119340425	2012.47275517897	1216.92396244854	138.436910444383	2366.74146605838	1864.63958262591	159.881540282327	2687.94051392798	1397.13679756087	137	2561.33638792651	1402.18619332272	138	1958.84592967696	908.352282601732	126.230614526744	2240.59676512606	1585.31402950053	127	2917.72185932735	313.333613030917	126	868.06596719039	2511.98946139075	134.363190442512	4100.17971289178
363.482276640875	139.114526628837	793.420874177352	1673.32541038261	175.998672777103	2519.68871345076	1070.47005042186	138	2203.66332960385	1835.64573486579	147	2683.29517874758	1680.7447881735	127	3674.17800695538	1523.52326648653	136	2264.01791605092	809.42070252247	125	1677.59224208797	1380.7270981858	145.182360902846	2012.79702040248	1216.92139024038	138.450693123001	2367.46383339915	1864.69201125087	159.887429844096	2689.98527749199	1397.20355999736	137	2561.38280514658	1401.38949999862	138	1959.31800138274	908.138302133493	126.245970034358	2239.755532046	1584.46586429765	127	2916.70444508498	313.315706467653	126	867.63486992969	2511.80983908952	134.328373708547	4099.48277882472
363.59258859861	139.109762976186	793.509577205041	1673.67590477443	176	2519.33371593042	1070.74513032842	138	2203.6376033016	1835.79716669442	147	2683.22359669186	1681.86811057727	127	3677.08820493029	1523.58487500748	136	2264.22318271866	810.026829748607	125	1679.15929677882	1381.40104827318	145.142842702643	2013.71744985415	1217.00956459878	138.457452512536	2368.67221573798	1865.03206894325	159.903568041094	2692.65714247733	1397.37835920769	137	2561.80573484828	1400.69322982014	138	1959.96615991304	908.077311466241	126.255703041147	2239.58299123849	1584.01031556934	127	2916.93321077812	313.261661509748	126	867.223545460877	2511.35427054941	134.285366262651	4098.92871574187
363.727717618486	139.1239101739	793.694569828885	1674.18314252986	176.001327222897	2518.82997970638	1071.17036810481	138	2203.96689953532	1836.30932672184	147	2683.66252169997	1683.26079000602	127	3681.00458522881	1523.83046516224	136	2264.92368697995	810.756149417359	125	1681.29103529253	1382.19927830912	145.136030427597	2015.28170563148	1217.23259576937	138.458033541857	2370.41252107593	1865.65627128177	159.92934612842	2695.86941608194	1397.69894794217	137	2562.63593972218	1400.18358523353	138	1960.78611702656	908.215821050266	126.25613631843	2240.1902706358	1584.01308606591	127	2918.45776153645	313.184358520547	126	866.885677844927	2510.77293727864	134.239556978063	4098.56167802976
363.886900787349	139.152433389745	793.97765694443	1674.88263723614	176.004650252251	2518.32829493996	1071.76039320278	138	2204.6909784887	1837.24675223454	147	2684.76852545449	1684.90370973429	127	3685.65121342156	1524.32516851648	136	2266.10148986264	811.580835888712	125	1683.81954123961	1383.1300626896	145.160066548617	2017.39896628314	1217.59220107229	138.451910352498	2372.62045847954	1866.49255678195	159.96262229584	2699.3822322479	1398.16150762852	137	2563.79103607493	1399.89297336034	138	1961.67695302727	908.563361009653	126.244106899082	2241.5533303419	1584.46408682589	127	2921.09700065691	313.094575679262	126	866.647383321451	2510.1693361294	134.194712193427	4098.40618299932
364.063175450249	139.188131330422	794.354134662191	1675.77200784684	176.011749802608	2517.99951010433	1072.49769894914	138	2205.8038205731	1838.58896730059	147	2686.58208650633	1686.7400285402	127	3690.63123155231	1525.09209321191	136	2267.62086658822	812.457789614445	125	1686.5149829499	1384.18256121846	145.210438102505	2019.86429539318	1218.04900750078	138.438904572151	2375.1204925006	1867.4171520383	160	2702.82855318695	1398.72604193805	137	2565.08553849926	1399.80267347715	138	1962.45353111038	909.085111258193	126.219629842208	2243.5031854782	1585.2681597063	127	2924.45761972948	312.997345554206	126	866.492714707984	2509.56089994055	134.154076655615	4098.47394439183
364.244531139374	139.224642613818	794.811617974831	1676.79733883357	176.023779221956	2518.0064496568	1073.33207056805	138	2207.25656221341	1840.2276890898	147	2689.01828262185	1688.68870715537	127.001327222897	3695.51356861068	1526.11377319439	136	2269.27584734843	813.337042150189	125	1689.13248264819	1385.33846374828	145.277722537919	2022.42068923213	1218.53599693823	138.41938350714	2377.65528571941	1868.29179031193	160.03737770416	2705.77911136145	1399.33345455969	137	2566.27459665912	1399.85659484095	138	1962.89243121172	909.710976418908	126.184813108242	2245.73498260843	1586.26753056592	127	2927.9807666374	312.892142147546	126	866.359861795025	2508.88638691841	134.118809488912	4098.74682497985
364.414515758922	139.257030264044	795.326339550658	1677.84228071669	176.04072345119	2518.4424502456	1074.18357934014	138	2208.94872301245	1841.97651909369	147	2691.86246790438	1690.65129699681	127.004650252251	3699.96243362965	1527.33550093004	136	2270.87716904416	814.170332253689	125	1691.47897041358	1386.58164238292	145.352510963737	2024.85489897096	1218.9861136346	138.394186449135	2379.92537571214	1869.01227289321	160.07065387158	2707.83485674954	1399.93025163791	137	2567.11129946744	1399.99462743931	138	1962.79112059301	910.3536472383	126.143560600305	2247.87298665916	1587.28146427502	126.998672777103	2931.05283139372	312.775536671691	126	866.155310681389	2508.04322306413	134.088381149336	4099.19399046184
364.556695485068	139.280786768324	795.859108521927	1678.74458847218	176.061156926116	2519.27370580683	1074.95902809451	138	2210.72736652194	1843.61033926899	147	2694.79634166537	1692.52753026039	127.011749802608	3703.80236817796	1528.67745367219	136	2272.30836093823	814.917594790404	125	1693.4492627082	1387.90636337088	145.423025707953	2027.05971885438	1219.35876849409	138.367583795699	2381.68210606835	1869.54707511205	160.096431958906	2708.75760012577	1400.49351228088	137	2567.44994912526	1400.1760632435	138	1962.05696239371	910.933468109622	126.101880377306	2249.53564159345	1588.15121811031	126.995349747749	2933.11582313899	312.64357568822	126	865.77560380195	2506.93836061237	134.062484149013	4099.74608386181
364.656450473328	139.296344091555	796.358231618802	1679.33375730733	176.082403674188	2520.3161079004	1075.57455796491	138	2212.40326539473	1844.9253743881	147	2697.45845718828	1694.22703966181	127.023779221956	3707.05020773991	1530.0493458624	136	2273.56138707003	815.554480868041	125	1695.0441525692	1389.31943802188	145.482458626157	2029.0722531151	1219.65691240476	138.346072489992	2382.77184204473	1869.94690366357	160.112570155904	2708.52391046202	1401.0357772368	137	2567.27177825755	1400.38947263374	138	1960.7307853015	911.396607970597	126.064502673146	2250.4226636999	1588.77106956251	126.988250197392	2933.78035422948	312.496054408587	126	865.134668353864	2505.52886977619	134.04072345119	4100.31534862536
364.707248770817	139.305893213177	796.765299504191	1679.47461427979	176.102409434054	2521.26102334985	1075.97622881526	138	2213.78462577506	1845.79120371258	147	2699.52794207613	1695.69277156399	127.04072345119	3709.88575570208	1531.37085968397	136	2274.72864407349	816.078093841308	125	1696.36146234229	1390.84329397814	145.525435142007	2031.05717822636	1219.93230665961	138.335566596561	2383.17928431635	1870.33028212692	160.118459717673	2707.34443076977	1401.59792499057	137	2566.69690697299	1400.64589321909	138	1958.98549097892	911.732603407109	126.035529024564	2250.37335057625	1589.11353154869	126.976220778044	2932.8907711099	312.340216986754	126	864.190189222751	2503.85805395823	134.023779221956	4100.80260874433
364.709781244701	139.312826547196	797.027231891179	1679.09647919541	176.118547631051	2521.74186057049	1076.14976527092	138	2214.71088319659	1846.17697793824	147	2700.79473367004	1696.89590561531	127.061156926116	3712.55076444137	1532.57564260822	136	2275.94426997029	816.503781071884	125	1697.54478462258	1392.49975991397	145.550807823183	2033.23693363818	1220.27237385032	138.340893180994	2383.03329276681	1870.84254857111	160.1138973788	2705.61357051926	1402.2329138124	137	2565.94706508588	1400.96130803923	138	1957.07752889994	911.968118517274	126.016400054859	2249.40155105209	1589.21455505349	126.95927654881	2930.55029096237	312.187962414309	126	862.955894209293	2502.03684905437	134.011749802608	4101.13030099354
364.672344189115	139.322655787395	797.106219110039	1678.20995749757	176.130209520281	2521.42144083907	1076.12130145257	138	2215.08562966546	1846.15399336016	147	2701.2056120977	1697.85304485571	127.082403674188	3715.25539069748	1533.62895465337	136	2277.32399975127	816.865120209566	125	1698.7369894423	1394.3106046644	145.560870690971	2035.81436912582	1220.77259173422	138.364273184199	2382.56074817689	1871.60825464411	160.102409434054	2703.80413921477	1402.97843595065	137.001327222897	2565.27126458548	1401.33351088454	138	1955.27231123081	912.158928318257	126.005977475148	2247.67614236426	1589.15943916835	126.938843073884	2927.07029653424	312.055381691366	126	861.500241351838	2500.2227224527	134.005977475148	4101.24292925278
364.608636982345	139.33836070711	796.990140435858	1676.90498349181	176.137676600757	2520.07871861022	1075.94807545154	138	2214.89691844912	1845.86946714706	147	2700.87028104095	1698.61285921543	127.101082211157	3718.1006861561	1534.52141667341	136	2278.91224349628	817.20523818323	125	1700.03440560239	1396.28344670718	145.55898515643	2038.90287904324	1221.51215532096	138.400849663297	2382.03649924694	1872.69312103732	160.087053926439	2702.36267920768	1403.84389716621	137.004650252251	2564.88453893014	1401.73269337436	138	1953.78085426217	912.370671051468	126.001327222897	2245.48844160249	1589.05063279282	126.917596325812	2922.91687526745	311.958163984164	126	859.938761097883	2498.57887449459	134.005977475148	4101.14264506232
364.53492361796	139.361168305668	796.693500599481	1675.32859351691	176.141805662347	2517.65269464811	1075.70402202508	138	2214.20882459902	1845.50588438988	146.998672777103	2700.01532194145	1699.24560419809	127.113897378801	3721.03352738421	1535.26347116943	136	2280.64706036848	817.567231844287	125	1701.45651867967	1398.40455382267	145.549491339452	2042.47806787606	1222.5280443515	138.445851167388	2381.71308031838	1874.08358118266	160.072906728724	2701.61140141533	1404.80176458923	137.011749802608	2564.9115993333	1402.0995660867	138	1952.71176577503	912.660951254542	126	2243.18941532593	1588.98481627548	126.898917788843	2918.62032157187	311.908323583374	126	858.413306739526	2497.23663885389	134.011749802608	4100.87771421474
364.468134250335	139.390074542999	796.250542276705	1673.65511644986	176.143560600305	2514.2405967978	1075.46471516004	138	2213.13356807949	1845.23701675565	146.995349747749	2698.90643897119	1699.82782173101	127.118459717673	3723.85781656777	1535.87359709497	136	2282.36288088009	817.986986561102	125	1702.9451301049	1400.63586283363	145.534661760099	2046.3777634438	1223.7994288116	138.489646159466	2381.7685488744	1875.68235728168	160.064502673146	2701.69499458335	1405.78767944616	137.023779221956	2565.36565417965	1402.35212294797	138	1952.06100073498	913.059531594255	126	2241.12618394059	1589.02421401741	126.886102621199	2914.69623417055	311.910485606169	126	857.072339486337	2496.25455546236	134.023779221956	4100.54445229703
364.423245103805	139.420226035183	795.707851286162	1672.05291505594	176.143560600305	2510.0630817018	1075.29335829935	138	2211.80512930879	1845.19133856499	146.988250197392	2697.78200317592	1700.42419436591	127.113897378801	3726.31617049103	1536.36664131678	136	2283.84145854785	818.483351378533	125	1704.39829298505	1402.91241147534	145.517441042611	2050.35217056208	1225.24936838708	138.526243607979	2382.27213916003	1877.3288675365	160.064502673146	2702.56021686758	1406.71357357852	137.04072345119	2566.14996038523	1402.40421116062	138	1951.71817286994	913.56750651591	126	2239.58145023952	1589.19494737992	126.881540282327	2911.57375929067	311.962731060638	126	856.047693698602	2495.62273261571	134.04072345119	4100.26528338761
364.40988372396	139.447157400923	795.113183458306	1670.6565632825	176.141805662347	2505.39844813415	1075.230697737	138	2210.34213627887	1845.42792555567	146.976220778044	2696.79178260972	1701.06615545312	127.101082211157	3728.13432697466	1536.73563590804	136	2284.84435346138	819.050868266154	125	1705.68875691148	1405.13983798999	145.498160846098	2054.10441937166	1226.75495136471	138.548672889362	2383.18046138608	1878.82620624318	160.072906728724	2703.98481629692	1407.4837629066	137.061156926116	2567.08840860316	1402.17941536378	138	1951.50405859884	914.151119339749	126	2238.74082417987	1589.47527636017	126.886102621199	2909.55570060986	312.055210875369	126	855.438462421302	2495.24937691729	134.061156926116	4100.17558794987
364.433667683517	139.466055871525	794.508066786915	1669.55417009677	176.137676600757	2500.52837019551	1075.29179238009	138	2208.83398477002	1845.93641759515	146.95927654881	2695.98211729557	1701.75831728184	127.082403674188	3729.13278367638	1536.96287041561	136	2285.19225165791	819.666451324147	125	1706.71826569825	1407.21354491615	145.476826184648	2057.37390708094	1228.17763252684	138.556697384953	2384.35523900493	1879.99471745894	160.087053926439	2705.63980783564	1408.02144160184	137.082403674188	2567.97201647982	1401.6381169759	138	1951.22097530407	914.758787872064	126	2238.67680061474	1589.81626666195	126.897590565946	2908.79661197899	312.173675330643	126	855.297819145738	2495.00260242269	134.082403674188	4100.39560110131
364.494567918084	139.472966487867	793.925867306229	1668.78859295073	176.130209520281	2495.69448500241	1075.47028641755	138	2207.33926147895	1846.65109158743	146.938843073884	2695.31382205774	1702.47671915838	127.061156926116	3729.2642434885	1537.01935338251	135.998672777103	2284.79976923958	820.289671688779	125	1707.43676726541	1409.02480956729	145.454824618326	2059.97725556437	1229.38576335475	138.550536024638	2385.60854553875	1880.705954265	160.102409434054	2707.17879130137	1408.28460832709	137.101082211157	2568.61937747885	1400.78824338812	137.998672777103	1950.7100053272	915.333426020294	126	2239.34924967368	1590.16014526397	126.912946073561	2909.29662946091	312.30272865154	126	855.624425742758	2494.74446638044	134.101082211157	4101.0004136765
364.586274796548	139.468918098746	793.38805059491	1668.36473288717	176.118547631051	2491.07229046037	1075.74292316691	138	2205.88684452405	1847.47749476296	146.917596325812	2694.6990648097	1703.17930961307	127.04072345119	3728.63815086519	1536.88038983763	135.995349747749	2283.69981785124	820.874427010536	125	1707.8558887751	1410.4791017729	145.432343367909	2061.8376751524	1230.28242101667	138.535467792335	2386.75229718322	1880.91359049457	160.1138973788	2708.32129038937	1408.27749858366	137.1138973788	2568.92292642551	1399.69129840072	137.995349747749	1949.8943265441	915.831083365038	126	2240.64667326486	1590.45748378714	126.927093271276	2910.94380361267	312.429007920702	126	856.372723807849	2494.36546861876	134.1138973788	4102.02546673248
364.699270988825	139.456156648397	792.91315905851	1668.267103111	176.102409434054	2486.78973493876	1076.08202077284	138	2204.50762284489	1848.32808421321	146.898917788843	2694.07162763659	1703.82725271737	127.023779221956	3727.49732125478	1536.54109570688	135.988250197392	2282.0370996346	821.379573904593	125	1708.04596175038	1411.51519653759	145.411275301921	2062.98517043467	1230.82573700307	138.5185188255	2387.63951036808	1880.66664160425	160.11978694057	2708.90779071635	1408.05338891369	137.118459717673	2568.86740706813	1398.45725810401	137.988250197392	1948.79471523487	916.230502834689	126	2242.40482029872	1590.68726196332	126.935497326854	2913.52438876074	312.54237937124	126	857.456138788833	2493.81860962442	134.118459717673	4103.43398364977
364.821360807868	139.440770141163	792.512073195946	1668.45909698694	176.082403674188	2482.92551906891	1076.45722962411	138	2203.23602147886	1849.13471986397	146.8861026212	2693.4112187593	1704.39258162382	127.011749802608	3726.17549666239	1536.02410888614	135.976220778044	2280.03909407044	821.777003973445	125	1708.12017989084	1412.11577799636	145.392070349456	2063.53854231256	1231.02982464901	138.504731339708	2388.20236657066	1880.09068838325	160.117220408154	2708.92470033459	1407.69831455142	137.113897378801	2568.53177875644	1397.22372174153	137.976220778044	1947.51875977651	916.536772456251	126	2244.45410828677	1590.85761368822	126.934170103957	2916.77945565469	312.63804864581	126	858.769114204541	2493.12255149502	134.1138973788	4105.15524291503
364.941121555993	139.4312731957	792.195723344526	1668.89765671482	176.061156926116	2479.53658545302	1076.8458116723	138	2202.12471406762	1849.86700242803	146.881540282327	2692.77461648881	1704.86424597771	127.004650252251	3725.00280097519	1535.38083609234	135.95927654881	2277.95634505735	822.056082919585	125	1708.19665041842	1412.3115053748	145.376550005728	2063.66199422691	1230.95880513293	138.498212818672	2388.44945798353	1879.35594080958	160.108181761514	2708.47253086556	1407.31171825407	137.101082211157	2568.04362320903	1396.12749248536	137.95927654881	1946.21323496458	916.776722916131	126	2246.63356618964	1591.00056412624	126.922443019025	2920.42218143865	312.715491520962	126	860.198195290715	2492.35119895511	134.101082211157	4107.07575495823
365.049394705655	139.433322719451	791.972744280519	1669.52890267343	176.04072345119	2476.66439923074	1077.22925425577	138	2201.23798744292	1850.52617051437	146.8861026212	2692.27526200393	1705.25580387027	127.001327222897	3724.25218953144	1534.68791059423	135.937515850987	2276.02048182142	822.227342000198	125	1708.37810616647	1412.18140947433	145.364082084261	2063.53400159145	1230.70975707184	138.498611278836	2388.44979089954	1878.6388132318	160.094433093536	2707.71511265498	1406.98466388867	137.082403674188	2567.53357297289	1395.27825444555	137.938843073884	1945.0151784297	916.987887726825	126.001327222897	2248.81065499029	1591.16086539412	126.901196270953	2924.17275551624	312.777549633602	126	861.639893377063	2491.61263969994	134.082403674188	4109.06824591768
365.141010970966	139.451729388302	791.845683641523	1670.29380030693	176.023779221956	2474.32473167955	1077.59512533652	138	2200.62696870669	1851.13515276795	146.898917788843	2692.03460889526	1705.59194632191	127	3724.08900722447	1534.03135009902	135.912946073561	2274.40387209477	822.313713430543	125	1708.72757908516	1411.83748873387	145.355201905338	2063.31621701782	1230.38819883823	138.501388721165	2388.31396743295	1878.08777935402	160.07810115535	2706.84074660704	1406.7838549745	137.061156926116	2567.11644184224	1394.74392978917	137.917596325812	1944.0275684805	917.206460589672	126.004650252251	2250.89329002422	1591.38009179957	126.87381134399	2927.79482604153	312.827651892254	126	863.012002712581	2491.01094259272	134.061156926116	4111.01662511984
365.216306812854	139.484816621707	791.813117864817	1671.13439262553	176.011749802608	2472.51396474148	1077.93602434577	138	2200.32420746516	1851.72825808173	146.917596325812	2692.15111696058	1705.91019876368	127	3724.56339367555	1533.49775377589	135.887167986235	2273.20613602659	822.349134869305	125	1709.26288025514	1411.41266960136	145.350639566466	2063.14194537719	1230.09083737267	138.500459958431	2388.14873349655	1877.80104997831	160.061156926116	2706.00388245165	1406.74509510193	137.04072345119	2566.85080429206	1394.54281645231	137.898917788843	1943.29057492628	917.45947881892	126.011749802608	2252.82227176975	1591.68809782605	126.84537917001	2931.10211266115	312.86916109174	126	864.258031739226	2490.62927372628	134.04072345119	4112.81451762767
365.279482263103	139.527736154224	791.861298747976	1672.00262179363	176.004650252251	2471.18142566213	1078.25079093104	138	2200.3109574821	1852.34257003719	146.938843073884	2692.63838270434	1706.24688687985	127	3725.62893177598	1533.15647582729	135.862323399243	2272.45486250328	822.369051556764	125	1709.9641729308	1411.03763782127	145.352594139515	2063.11135582889	1229.89099694451	138.490618408041	2388.02202932178	1877.8252254692	160.046353192925	2705.29601681056	1406.87381292287	137.023779221956	2566.73142699421	1394.65370115167	137.8861026212	1942.78096948911	917.755864466666	126.023779221956	2254.56992893566	1592.090875548	126.820383356211	2933.97342346059	312.90319207741	126	865.347136144469	2490.49532648551	134.023779221956	4114.3761760559
365.338272793732	139.57045074264	791.965678126307	1672.85583492945	176.001327222897	2470.23240101312	1078.5405116851	138	2200.51674105189	1853.00559364933	146.95927654881	2693.41860985475	1706.62113921019	127	3727.17457575305	1533.04321957324	135.83948960824	2272.12061211983	822.399941735576	125	1710.78477425553	1410.81848348382	145.361194498113	2063.2926428501	1229.82407057381	138.469731371892	2387.96440158678	1878.14374537527	160.035078591827	2704.75121899366	1407.14309877741	137.011749802608	2566.7127894579	1395.01467827442	137.881540282327	1942.43693150237	918.089217829172	126.04072345119	2256.12457814699	1592.57400298164	126.803698947011	2936.34203448326	312.928215346485	126	866.268142316967	2490.58567838479	134.011749802608	4115.63710799652
365.398190410329	139.604349570503	792.089443303835	1673.65653852816	176	2469.52140980439	1078.80409140376	138	2200.81882456479	1853.7252707865	146.976220778044	2694.31889511522	1707.02820057844	127	3729.05478339062	1533.15253305452	135.820295442833	2272.12993656656	822.455850583805	125	1711.66493868802	1410.82183326834	145.379250374639	2063.72197153965	1229.89066906716	138.440752985709	2387.95373569501	1878.69164709528	160.029215222503	2704.33703717935	1407.50340217209	137.004650252251	2566.7104864713	1395.53833323307	137.8861026212	1942.16475478423	918.433769137812	126.061156926116	2257.48203748033	1593.09364006444	126.797835577687	2938.18588743419	312.940222048157	126	867.02159539313	2490.81031575255	134.004650252251	4116.55909571663
365.462700949562	139.620653983839	792.188016628246	1674.3702759709	176	2468.86791773992	1079.03963717972	138	2201.05810465296	1854.49026151033	146.988250197392	2695.10464513499	1707.44050751224	127	3731.10865872397	1533.44278092774	135.804764312047	2272.38214375162	822.537059376402	125	1712.54202133881	1411.06985383691	145.407521498593	2064.4012624911	1230.06051065625	138.410067747069	2387.93612955689	1879.36895608411	160.029668783726	2703.98385439052	1407.88849016475	137.001327222897	2566.63437992934	1396.12252425535	137.898917788843	1941.86894952835	918.75692045196	126.082403674188	2258.62266693429	1593.59426989623	126.803698947011	2939.49391100286	312.934714278332	126	867.609513721587	2491.04406338771	134.001327222897	4117.09877937016
365.527898536655	139.615724114849	792.213764601823	1674.95075680464	176	2468.08296453898	1079.23271312699	138	2201.06560019429	1855.2570317361	146.995349747749	2695.52781951376	1707.80876634192	127	3733.1714204731	1533.84059977636	135.791407669802	2272.76030371866	822.631426334789	125	1713.35208910629	1411.54040569096	145.444093170517	2065.29300652454	1230.28060339653	138.385468718285	2387.84359726717	1880.05644617766	160.036161112317	2703.60387902417	1408.22665750049	137	2566.40640421646	1396.66235809422	137.917596325812	1941.46743037128	919.017193428978	126.101082211157	2259.52926285897	1594.00711829584	126.820383356211	2940.28214085704	312.90602024649	126	868.033952837501	2491.13196048124	134	4117.24237557062
365.584652612702	139.59205559352	792.125112255633	1675.35056694331	176	2466.99930953157	1079.36443214856	138	2200.69580860308	1855.96708154177	146.998672777103	2695.37842566859	1708.07888653081	127	3735.09309750379	1534.26180500751	135.779571991643	2273.15458424603	822.720129355359	125	1714.04197418688	1412.17937628871	145.485680672964	2066.33100813868	1230.48660444154	138.376022986807	2387.61923125237	1880.6374865225	160.049668981369	2703.12654321395	1408.44910284478	137.001327222897	2565.98727934368	1397.06335741705	137.938843073884	1940.91350888384	919.178206052743	126.113897378801	2260.17644346962	1594.2730961305	126.844051947113	2940.56976013993	312.850635647834	126	868.293487212992	2490.93446168955	134	4116.98080542549
365.619870935317	139.554667519964	791.897198215265	1675.52084828272	176	2465.51498569464	1079.41211790541	138	2199.86520207701	1856.55425572513	147	2694.54575436319	1708.20331375234	127	3736.75128418961	1534.62767452045	135.766582879516	2273.47732634083	822.782029400121	125	1714.57396358888	1412.91299607973	145.527046581302	2067.43277295854	1230.61740335428	138.384703600213	2387.23267497744	1881.018209738	160.068375389471	2702.51640089697	1408.50336848605	137.004650252251	2565.38388837543	1397.2575702751	137.95927654881	1940.20243921071	919.213596087886	126.118459717673	2260.55404624292	1594.35028054409	126.870488314637	2940.40039267169	312.768231973646	126	868.390340456108	2490.35331595058	134	4116.33428639832
365.619072769168	139.51358895651	791.524766685319	1675.42110680207	176	2463.60256272584	1079.35449498459	138	2198.564768041	1856.95845460394	147	2693.03662481437	1708.1515481035	127	3738.07200770997	1534.87533711837	135.751490250848	2273.67904273074	822.796998574656	125	1714.92995378613	1413.66037222131	145.561596254324	2068.51762722589	1230.62732372688	138.41207346807	2386.69317359859	1881.14360882327	160.091585265693	2701.78697051895	1408.36210251369	137.011749802608	2564.65189719879	1397.21196067523	137.976220778044	1939.37105050975	919.113890330797	126.113897378801	2260.6783677234	1594.22358190391	126.894096720595	2939.84817185669	312.661377435029	126	868.334879084534	2489.35531007393	134	4115.36155119499
365.57209222609	139.479494726984	791.026828759468	1675.03556279543	176.001327222897	2461.33242132521	1079.18258628797	138	2196.87724137343	1857.14595502165	147	2690.99286026695	1707.91265874643	127	3739.01755118843	1534.96206586994	135.73361252128	2273.74355729581	822.747240924861	125	1715.10859456683	1414.34100210149	145.584230410236	2069.51454982512	1230.48723221642	138.451472337615	2386.04257686119	1880.99448417484	160.11724312583	2700.99007865455	1408.018986294	137.023779221956	2563.8785626944	1396.9248948684	137.988250197392	1938.4827406721	918.885881976778	126.101082211157	2260.60124017639	1593.90737422715	126.910413599677	2939.02532629363	312.53545063688	126	868.151512333383	2487.98202140755	134	4114.17246375676
365.477267106821	139.460508702142	790.439358308086	1674.38424951402	176.005977475148	2458.84098721387	1078.90125709353	138	2194.94743396042	1857.11296896412	147	2688.64220560063	1707.49899335016	127	3739.60296131047	1534.87122920935	135.714112546688	2273.69008318995	822.620554708805	125	1715.12576273932	1414.88366841331	145.592483308581	2070.37458194185	1230.19334727312	138.49342268047	2385.34878655203	1880.59387720933	160.142238939629	2700.2056645829	1407.49509643518	137.04072345119	2563.1679766352	1396.43192098493	137.995349747749	1937.61736400442	918.556999110188	126.082403674188	2260.40192173856	1593.44854267705	126.917225874723	2938.06916481795	312.398719467077	126	867.87754985812	2486.35393985822	134	4112.90375194191
365.339960957153	139.460943658113	789.810792935147	1673.53847498806	176.016400054859	2456.3160739423	1078.53684777706	138	2192.96130383202	1856.8956316079	147	2686.2604415805	1706.9293921252	127	3739.84851103842	1534.59514681416	135.695929007936	2273.53846745097	822.402967938306	125	1714.98973339233	1415.21872470127	145.585640033915	2071.04864542005	1229.75742238784	138.524893667406	2384.68327535544	1879.99720262987	160.163024885569	2699.52115974996	1406.83278366303	137.061156926116	2562.62271719984	1395.78747982453	137.998672777103	1936.84891440715	918.166694611232	126.061156926116	2260.17058951016	1592.91246822371	126.913736629031	2937.12190657727	312.261065583996	126	867.560177455712	2484.6441601422	134	4111.70653260542
365.175054304917	139.4808615046	789.193333850617	1672.60775588475	176.035529024564	2453.96247371387	1078.12854718541	138	2191.11226273106	1856.56310189022	147	2684.1231740834	1706.22740129091	127	3739.77697286762	1534.13798671399	135.683140032737	2273.29927163784	822.083798114158	125	1714.69952457861	1415.28736990735	145.565281803037	2071.48635627285	1229.19942062576	138.537045058664	2384.08969238736	1879.27455452995	160.176386334988	2698.99717356817	1406.08214891096	137.082403674188	2562.31246358795	1395.05021085244	138	1936.2227557802	917.753283665304	126.04072345119	2259.97439072684	1592.35982706167	126.901196270953	2936.28386022068	312.130309851513	126	867.246307250702	2483.03464162158	134	4110.70006182179
365.002708097055	139.512987296965	788.632976971454	1671.73018941281	176.064502673146	2451.96080071409	1077.72492336999	138	2189.56519291159	1856.20780206813	147	2682.45070768421	1705.40827567884	127	3739.38870694169	1533.50427388689	135.678837513898	2272.95379020251	821.650334216246	125	1714.23593673766	1415.03765909366	145.534573846721	2071.62849524836	1228.53461360588	138.52422989102	2383.56331942494	1878.49896190525	160.180162855991	2698.64371974706	1405.296609046	137.101082211157	2562.25565856231	1394.2701543042	138	1935.73793815266	917.344859350291	126.023779221956	2259.81889012814	1591.83095445805	126.882517733985	2935.56443949504	312.012547968758	126	866.970154852637	2481.68108456305	134	4109.92834741267
364.841240933487	139.547480056228	788.160398167628	1671.03499278938	176.101880377306	2450.42707246655	1077.37010965207	138	2188.42314712458	1855.92425121494	147	2681.37473079279	1704.46797925609	127	3738.64939422093	1532.6937534411	135.686304594374	2272.44713909014	821.089013358576	125	1713.56153192201	1414.4301125772	145.495499159395	2071.40501368504	1227.76742412977	138.490164846818	2383.04905804933	1877.72819524925	160.17372708202	2698.41532895886	1404.5178046496	137.1138973788	2562.41523351152	1393.47123405253	138	1935.34064298764	916.94603971877	126.011749802608	2259.63178246858	1591.31985193226	126.860996176346	2934.85520523744	311.909881843156	126	866.746500059873	2480.66359486222	134	4109.35438058037
364.705166365193	139.573807830525	787.791377580805	1670.62005805497	176.143560600305	2449.40270114301	1077.09689347183	138	2187.72768844577	1855.79746611754	147	2680.9387258853	1703.38823500249	127	3737.49616026276	1531.70454393975	135.706398064032	2271.69265934837	820.388595848551	125	1712.63299475748	1413.4451977286	145.450267086627	2070.75144156168	1226.89133956984	138.445332480036	2382.45525110369	1876.99306163766	160.159183168863	2698.21167369982	1403.77028434048	137.118459717673	2562.70167771602	1392.65095563977	138	1934.92988867975	916.53465006279	126.005977475148	2259.26103234364	1590.77232454796	126.840816831137	2933.9255573055	311.820383356211	126	866.564225727369	2479.96757413728	134	4108.85440048079
364.599014468667	139.58282028472	787.525426363422	1670.53070823119	176.183485885345	2448.85557056417	1076.91967601922	138	2187.45534236685	1855.88335199776	147	2681.0948685804	1702.14283924655	127	3735.85506705729	1530.53965624483	135.738407397083	2270.58861247319	819.54579076138	125	1711.41520444114	1412.09229775146	145.401285999492	2069.61848092441	1225.89431735665	138.402863380256	2381.67864513096	1876.29666389448	160.137676600757	2697.89351976652	1403.06184583709	137.113897378801	2562.98841449576	1391.79398026605	138	1934.38322976892	916.066484141064	126.005977475148	2258.52319259639	1590.09600344144	126.824945695083	2932.48517937682	311.737869050968	126	866.394845673754	2479.48550080398	134	4108.27356517464
364.519654345035	139.57072566967	787.353953984854	1670.75700356697	176.214979589957	2448.70978322454	1076.83295315497	138	2187.53763379186	1856.19302398479	147	2681.7309595697	1700.72112984845	127	3733.66473365971	1529.22194435108	135.779919725055	2269.0389937738	818.574495587399	125	1709.89356274541	1410.42113501159	145.352052664913	2067.98538911016	1224.76773722508	138.375901014897	2380.64666498574	1875.61264537914	160.112832013765	2697.33114826177	1402.38223789997	137.101082211157	2563.155771503	1390.88566130224	138	1933.60169658038	915.495237551576	126.011749802608	2257.2607154503	1589.19679869421	126.816514114655	2930.26462227763	311.654448700669	126	866.20114008673	2479.0595445255	134	4107.4730779459
364.456372029873	139.538700742388	787.271585144193	1671.25177104731	176.233684319371	2448.90348920497	1076.81723042227	138	2187.90016469386	1856.69879076676	147	2682.71356562938	1699.14015606011	127	3730.92784143052	1527.80121023123	135.826011060119	2266.99241268768	817.507996769458	125	1708.09451669192	1408.51902848203	145.306422131982	2065.87335728671	1223.51830169091	138.372696898541	2379.32840700435	1874.90309369174	160.087053926439	2696.41749786302	1401.71515153254	137.083730897085	2563.09863371016	1389.92967811896	138	1932.52786916326	914.788949516007	126.023779221956	2255.40487115407	1588.00758962743	126.816514114655	2927.09456840027	311.562835563843	126	865.951739450877	2478.52699249417	134	4106.378870078
364.397519778311	139.493770413882	787.283983973596	1671.95075805038	176.238334571621	2449.43032310507	1076.84796074697	138	2188.49208607688	1857.34592475356	147	2683.92709302928	1697.46080918484	127	3727.73654018482	1526.3648626355	135.872222622371	2264.46554841344	816.399607949159	125	1706.08847699301	1406.50869954891	145.270013547911	2063.34990464559	1222.16723802605	138.394007163627	2377.76754742697	1874.1228380783	160.062484149013	2695.12047262482	1401.03995409879	137.065807178367	2562.77759108128	1388.95042151406	138	1931.18305209187	913.943022974767	126.04072345119	2253.02232415617	1586.51171904985	126.824945695083	2922.97056054604	311.456654346387	126	865.635840032194	2477.77008269719	134	4105.03384465033
364.33098520235	139.444093170517	787.41071082137	1672.78451437893	176.232706867713	2450.3589822675	1076.89739513544	138	2189.30453015806	1858.05808678631	147	2685.31180552064	1695.77613591561	127	3724.27257042879	1525.03083595724	135.913736629031	2261.56350915994	815.312885731854	125	1703.97891445719	1404.53455473949	145.247792117528	2060.53330002121	1220.74947269818	138.434718196963	2376.04331427322	1873.2433770806	160.04072345119	2693.48064819211	1400.33944457186	137.052473253798	2562.19605544745	1387.98427442475	138	1929.63072646912	912.987021199551	126.061156926116	2250.29255510825	1584.74615536977	126.840816831137	2918.02013845944	311.334128880553	126	865.26385560826	2476.76017405607	134	4103.57684481978
364.249301325707	139.400758980572	787.67620001195	1673.69408048789	176.224992385057	2451.80593627204	1076.94656103131	138	2190.36437714872	1858.77234725259	147	2686.86988992074	1694.19517786486	127	3720.74462077789	1523.94455089549	135.947526746202	2258.4627336664	814.306906296544	125	1701.86776062534	1402.75554689001	145.24273478044	2057.57721946498	1219.30124015081	138.485778955737	2374.23646555359	1872.27515226114	160.022451999059	2691.60119725595	1399.60358722411	137.047558443912	2561.38518397645	1387.06185288438	138	1927.94018461905	911.966372851442	126.082403674188	2247.44397258026	1582.76222378235	126.862323399243	2912.41167884753	311.196301052989	126	864.860686212204	2475.54150405637	134	4102.20121575512
364.148814378356	139.372246465804	788.09358586508	1674.61454949691	176.224463328309	2453.86953209951	1076.97920659195	138	2191.70071849904	1859.43257578231	147	2688.63032207399	1692.80484454113	127	3717.32298443039	1523.25581065701	135.970243302896	2255.38125782644	813.418150267946	125	1699.8198597579	1401.32700680308	145.252275970333	2054.6544258538	1217.84735961418	138.537993410587	2372.39152589005	1871.26507245202	160.005772327461	2689.62370795829	1398.82367754921	137.052473253798	2560.37792172633	1386.18143069303	138	1926.134745412	910.926327677531	126.101082211157	2244.67464763177	1580.59232228893	126.887167986235	2906.26532938974	311.046324962653	125.998672777103	864.457509223611	2474.21014575718	134	4101.1210973203
364.029291995421	139.365142108272	788.64926484617	1675.47632114493	176.240617002073	2456.55661291378	1076.98330535403	138	2193.30751079083	1860.00441622922	147	2690.60808679446	1691.64787291392	127	3714.06957023706	1523.10017340534	135.982272722244	2252.54034657626	812.653548557905	125	1697.83954979725	1400.39499134697	145.272032338082	2051.94310191348	1216.39822147564	138.583624013091	2370.47517516551	1870.31440894519	159.988250197392	2687.68786055877	1398.00156267814	137.065807178367	2559.17615147982	1385.30775001299	138	1924.15806392229	909.885583080911	126.113897378801	2242.06367236673	1578.20976437769	126.912946073561	2899.55840387228	310.889617284342	125.995349747749	864.072763497001	2472.86630072684	134	4100.48830143212
363.891348799202	139.379779293444	789.294090075039	1676.19249549094	176.277216198847	2459.73212901721	1076.94639465057	138	2195.11325542856	1860.46303263121	147	2692.74951163408	1690.70801216148	127	3710.91736303111	1523.57740406954	135.983599945141	2250.12417318898	811.990545752925	125	1695.87031342544	1400.08731879598	145.292816187672	2049.61256931199	1214.95197052017	138.617854311069	2368.4015540051	1869.56409407359	159.964470975436	2685.91708419796	1397.15067725732	137.083730897085	2557.77121006929	1384.38194268061	138	1921.90237091586	908.831355929288	126.118459717673	2239.52681987923	1575.52684050141	126.937515850987	2892.10157607228	310.731219933348	125.988250197392	863.703102282929	2471.57984138409	134	4100.34049293843
363.733951547968	139.415142239611	789.946395954098	1676.65382493712	176.332645089824	2463.10910438402	1076.84842115626	138	2196.97172988879	1860.77416107157	147	2694.89470996595	1689.91984067314	127	3707.72267584966	1524.72662317213	135.97356633225	2248.26004526041	811.389861643179	125	1693.83207647971	1400.50010504546	145.304058574211	2047.81347291208	1213.51419758651	138.638712026287	2366.06436198847	1869.16907951463	159.930847074603	2684.37580143398	1396.30528144567	137.101082211157	2556.14668683823	1383.35617074513	138	1919.24910663061	907.719356859017	126.113897378801	2236.85057817115	1572.4187147159	126.95927654881	2883.63178683312	310.57652385931	125.976220778044	863.327020623471	2470.36244668506	134	4100.60428222912
363.555530865799	139.465426153279	790.505532691623	1676.75017110035	176.398719467077	2466.29072988982	1076.66378774463	138	2198.6761309374	1860.89347781532	147	2696.77182704085	1689.19830840465	127	3704.36206924929	1526.51446379204	135.954626296559	2247.02015123541	810.817747707161	125	1691.67553117757	1401.68237857583	145.297366108691	2046.6767626935	1212.1102874988	138.64857942284	2363.40808966927	1869.26267790897	159.886369820086	2683.08100912537	1395.52124920301	137.115224601697	2554.3344138869	1382.22864438279	138.001327222897	1916.16578779183	906.500050278457	126.101082211157	2233.7607452043	1568.79718912528	126.976220778044	2873.93625899846	310.431130609974	125.95927654881	862.910676850221	2469.20843592279	134	4101.09671436528
363.353446746184	139.52274957506	790.875375192694	1676.39075037952	176.462543908156	2468.85707228832	1076.36297824682	138	2200.00034266661	1860.75927592484	147	2698.04065852159	1688.47101026227	127	3700.81101797079	1528.83242741203	135.925766048379	2246.42557043181	810.261590209902	125	1689.42040915132	1403.61937463559	145.269047265538	2046.2984125746	1210.80304933528	138.649360433535	2360.48867407915	1869.93669061871	159.832660177739	2682.02698267356	1394.88391600599	137.123109969924	2552.45531554469	1381.0868420728	138.004650252251	1912.7857182686	905.144418990345	126.082403674188	2230.02681868536	1564.67031938513	126.988250197392	2863.00089000019	310.303475066313	125.938843073884	862.424618228951	2468.12788190655	134	4101.5702628299
363.126065607102	139.579663333763	790.982928169653	1675.53382911464	176.509820835444	2470.44535006245	1075.91810068829	138	2200.72834973061	1860.30653198944	146.998672777103	2698.34074809809	1687.70386935649	127	3697.20690275609	1531.50756198194	135.889166851605	2246.46467393522	809.740238962317	125	1687.17477966744	1406.2172882806	145.21954192883	2046.72455513745	1209.69074479711	138.643624532308	2357.49710330671	1871.21176602999	159.775790663465	2681.20947003769	1394.49772316051	137.125647181409	2550.73148252062	1380.11079368698	138.011749802608	1909.43883034689	903.671520099511	126.061156926116	2225.56548909383	1560.19802876153	126.995349747749	2851.12702748001	310.205890032578	125.917596325812	861.863167439208	2467.20709434732	134	4101.78611413396
362.875405765774	139.629338781047	790.797915438757	1674.21166405073	176.529740360619	2470.85215108165	1075.31276319119	138	2200.70904751389	1859.4860058835	146.994022524852	2697.38074492743	1686.90974699708	127	3693.82242717839	1534.32439296706	135.845117312148	2247.09235920817	809.299990702701	125	1685.11425981769	1409.30194086736	145.156375767948	2047.92661219386	1208.88868335823	138.633356945544	2354.74294347628	1873.0261298356	159.723863483927	2680.6513422032	1394.46796614772	137.124861433113	2549.47117160377	1379.54986938198	138.023779221956	1906.62965286381	902.156838431343	126.04072345119	2220.5073595916	1555.6972952647	126.998672777103	2838.97123299555	310.154745901561	125.898917788843	861.261084917298	2466.63749111317	134	4101.58595452339
362.60953649018	139.667691237091	790.331657235074	1672.53125602931	176.516925192975	2470.05266403515	1074.54137938943	138	2199.8587060099	1858.27086035935	146.983599945141	2694.97088349336	1686.14453177815	127	3691.00530802853	1537.05936910104	135.79518899798	2248.23232307591	809.004283341159	125	1683.44027955387	1412.63052421543	145.089065209662	2049.78555246135	1208.50586252469	138.618372026961	2352.5873794029	1875.23558133651	159.685239229338	2680.39924141559	1394.87945939385	137.123127125378	2549.00274495187	1379.67422438121	138.04072345119	1904.9427813824	900.728793876575	126.023779221956	2215.19551358938	1551.60785326824	127	2827.46682206698	310.170531024121	125.8861026212	860.694834704959	2466.71628728586	134	4100.91036622121
362.339687930007	139.690499181932	789.639145563971	1670.6696573347	176.472437569062	2468.2264293075	1073.61844497124	138	2198.1934976615	1856.67970418124	146.963143752539	2691.09163589081	1685.47482374711	127	3689.0663931945	1539.5003835518	135.740685879193	2249.76505808732	808.907089645044	125	1682.32013385034	1415.90887842561	145.028446629661	2052.08585179474	1208.60923475743	138.596607562997	2351.36424030415	1877.61814101032	159.665233469473	2680.51161405676	1395.76720884042	137.122313852232	2549.60223775416	1380.69024025381	138.061156926116	1904.90303669181	899.542056918723	126.011749802608	2210.13455385387	1548.40433484623	127	2817.67573973766	310.27503178869	125.881540282327	860.282362778889	2467.79561305097	134	4099.84277000875
362.082919523824	139.696362551256	788.804099674732	1668.83375012447	176.403825980324	2465.69746093695	1072.57446337374	138	2195.81620715307	1854.7753068378	146.929519851706	2685.89829134656	1684.94596865499	127	3688.17201552302	1541.47174610967	135.682356984215	2251.51789878997	809.034383616717	125	1681.84094998332	1418.83089993882	144.98278857188	2054.53224769821	1209.20276522827	138.567506446317	2351.28507010713	1879.89844113406	159.666472778992	2681.00389816801	1397.09554742232	137.123127125378	2551.39090287166	1382.67387396397	138.082403674188	1906.81891252976	898.734304483534	126.004650252251	2205.86779308962	1546.48074956886	127	2810.5516028843	310.48416815532	125.8861026212	860.156773217885	2470.1822627319	134	4098.56365267916
361.855850329576	139.68437564629	787.914511165467	1667.22388902819	176.320633429354	2462.84441788993	1071.45200333909	138	2192.88763566631	1852.65531557516	146.880392344938	2679.67682995553	1684.55690426892	127	3688.25034895603	1542.84480186223	135.620386784953	2253.24758116833	809.371018532523	125	1681.97347286884	1421.11618664553	144.956041294892	2056.77797334143	1210.21718914477	138.530102549712	2352.37903370656	1881.77978123876	159.686304594374	2681.80229015753	1398.75151247239	137.124861433113	2554.27664085923	1385.53039183919	138.101082211157	1910.67390758068	898.393677107772	126.001327222897	2202.84860347942	1546.0588018449	127	2806.72804925206	310.803640578116	125.898917788843	860.438837455641	2474.0544382158	134	4097.31240251974
361.672364444231	139.655661817743	787.04744103745	1665.99785795331	176.232514137879	2460.01277747841	1070.30308603346	138	2189.59355813754	1850.43338203154	146.816260122881	2672.77913229726	1684.24760650485	127	3688.9723028429	1543.54102262855	135.554667519964	2254.64436482108	809.857551581161	125	1682.57322745492	1422.54750471312	144.947353022915	2058.46309343529	1211.52206265208	138.487794976561	2354.47251103564	1882.98656113644	159.718762798939	2682.71253481641	1400.55719297947	137.126974404306	2557.9376077716	1388.99519062321	138.113897378801	1916.08654817684	898.52837191041	126	2201.3193923183	1547.12295905095	127	2806.34580985834	311.224822610113	125.917596325812	861.202430252754	2479.37642991238	134	4096.3302140268
361.540893448217	139.614072982891	786.256938443091	1665.2454054184	176.145579124437	2457.46030567234	1069.17673075713	138	2186.12073010623	1848.21040452935	146.738934416004	2665.55517795988	1683.90597423113	127	3689.77883329468	1543.52791760107	135.485257765077	2255.34159918466	810.4002442739	125	1683.40064005541	1422.99226801772	144.951920099389	2059.25210344004	1212.9538801229	138.4445264478	2357.21057342006	1883.30516283767	159.75498673745	2683.39939356394	1402.29868834448	137.127760222174	2561.85005779404	1392.68549741821	138.118459717673	1922.35112804191	899.064953011787	126.001327222897	2201.24644992468	1549.4158010595	127	2808.99897378941	311.722898450123	125.938843073884	862.446552248663	2485.87065071412	134	4095.81357537031
361.462097157723	139.565207333984	785.568445001208	1664.98939902531	176.061156926116	2455.33393424801	1068.11766552067	138	2182.62870909951	1846.05704342152	146.65471055853	2658.27828416478	1683.39692768388	127	3689.99075417351	1542.81690511238	135.412861857617	2254.96248748441	810.894385809811	125	1684.17086450861	1422.41729007264	144.963926801061	2058.86770511316	1214.34601809522	138.404438005333	2360.12049933983	1882.61480391805	159.785959251402	2683.42199137692	1403.76603124972	137.126974404306	2565.37864422854	1396.17827741456	138.113897378801	1928.56844467846	899.860980443712	126.004650252251	2202.32508659852	1552.49162959403	127	2813.80774853837	312.257457979105	125.95927654881	864.086303472415	2493.04201076679	134	4095.87375811346
361.42910847313	139.517551673665	784.983342384984	1665.18878086072	175.976220778044	2453.6910554535	1067.15385242952	138	2179.23638759869	1843.99148355803	146.571609049424	2651.10914347224	1682.60202575911	127	3688.94386663625	1541.46316665128	135.339149583892	2253.17588677795	811.245962916762	125	1684.60461895857	1420.8844631231	144.977548000941	2057.11267378638	1215.55976111618	138.370395886323	2362.70783582734	1880.90381326116	159.803183097375	2682.30898208321	1404.79304442201	137.124861433113	2567.90600179494	1399.10265356508	138.101082211157	1933.83251111144	900.742256789582	126.011749802608	2204.04574618173	1555.81982810339	127	2819.59290099712	312.780682518461	125.976220778044	865.95943494966	2500.26810119391	134	4096.52704021721
361.428069079343	139.480949417978	784.484498446439	1665.76068717186	175.887697042983	2452.53697911646	1066.29698803449	138	2176.01777540877	1841.98833697079	146.499220870109	2644.09222737593	1681.44566724199	127	3686.15189497827	1539.5598824417	135.266781201282	2249.77782995933	811.389254295516	125	1684.48637598182	1418.52854080824	144.988250197392	2053.89409296872	1216.49863292851	138.344796481081	2364.53527010719	1878.26639187998	159.80161500598	2679.6410364058	1405.2854005058	137.124454348275	2568.94507138314	1401.20673951457	138.082403674188	1937.39933119616	901.539692386861	126.023779221956	2205.80678219698	1558.89070158031	127	2825.10379346554	313.244983230832	125.988250197392	867.853926945981	2506.90479458723	134	4097.69472961637
361.441986733006	139.463857923941	784.045045223566	1666.59175721852	175.791936726549	2451.86242889483	1065.53790432806	138	2173.00876320036	1839.99052026318	146.445586471811	2637.19104161554	1679.92078712615	127	3681.40154298899	1537.23854963522	135.199095384734	2244.74631157507	811.297932228916	125	1683.69323786623	1415.53591115276	144.995349747749	2049.23140588837	1217.11068370321	138.328177267584	2365.30469120603	1874.88244269667	159.780093448342	2675.15929180932	1405.23227147336	137.126964104483	2568.24699133294	1402.39566080984	138.061156926116	1938.83057769398	902.121453148163	126.042050674087	2207.03602557889	1561.30694398405	127	2829.23682802308	313.610084625336	125.995349747749	869.545014501118	2512.40791009033	134	4099.24138464705
361.450676871239	139.46999778152	783.626952556126	1667.54770935646	175.689527292496	2451.62406661748	1064.84555856995	138	2170.18934355716	1837.92919919446	146.415940405761	2630.32610694062	1678.07160621357	127	3674.768522189	1534.65941206864	135.139527180237	2238.28327725392	810.976001331274	125	1682.1915873154	1412.11612908123	144.998672777103	2043.27207187539	1217.3765982896	138.320558960301	2364.8659860799	1871.00951222954	159.741476434663	2668.84627607912	1404.69938073771	137.134876927986	2565.82464586393	1402.72625286605	138.04072345119	1938.03757499912	902.409299332993	126.065807178367	2207.27569816708	1562.8287094389	127	2831.17415900482	313.850859873929	125.998672777103	870.82902145531	2516.42693915134	134	4100.99550131593
361.43459598784	139.499557197023	783.18024230335	1668.48004928636	175.58433630369	2451.72538452338	1064.17203316879	138	2167.48965011313	1835.75630607344	146.410053972477	2623.42781417107	1675.97248126816	127	3666.54250983086	1532.00762234246	135.09091362322	2230.79414071735	810.446220056491	125	1680.01343497186	1408.49466965568	144.998672777103	2036.28871311107	1217.29021452465	138.320900849437	2363.21744985685	1866.96000356593	159.691190842307	2660.96724802607	1403.80267744517	137.148640655069	2561.93552936384	1402.36080635437	138.023779221956	1935.25626163962	902.377022324452	126.094153476797	2206.23897395727	1563.36248625763	127	2830.43884718244	313.959054053297	126	871.552855104885	2518.83999729822	134	4102.79304955405
361.375196699455	139.545625814411	782.644401522989	1669.21555264741	175.480166369456	2451.97485069615	1063.45139486156	138	2164.78469532042	1833.43683106845	146.422091604195	2616.44996756735	1673.694449636	127	3657.12712406314	1529.47220881951	135.053800476695	2222.8297845563	809.733295067945	125	1677.22675045167	1404.89324483613	144.994022524852	2028.66633367648	1216.8527307303	138.327826455311	2360.48225474584	1863.06968955318	159.635220476729	2652.0578747941	1402.67801956667	137.167697855495	2557.01523456095	1401.5124988503	138.011749802608	1930.95842083121	902.043188708977	126.124861433113	2203.82643829532	1562.93233647046	127	2826.89621485042	313.941170207709	126	871.633028454332	2519.74985563134	134	4104.51276743996
361.256455534731	139.597934785894	781.949472768224	1669.57881639636	175.383379436229	2452.0684576771	1062.61541661325	138	2161.91091335947	1830.97213211984	146.441986733006	2609.38702723174	1671.2811875168	127	3646.93268411558	1527.2238531956	135.028429474207	2214.99912917012	808.857263262671	125	1673.91703644024	1401.52338719165	144.982272722244	2020.87643191461	1216.06995908497	138.337822360995	2356.87400944109	1859.66984923193	159.578706561954	2642.86273678036	1401.45328117383	137.188917148291	2551.58891041358	1400.39283212494	138.004650252251	1925.7480091104	901.457760129967	126.15462082999	2200.11820652895	1561.64401433922	126.998672777103	2820.71506246836	313.817104240972	126	871.060846149913	2519.45133241206	134	4106.08584935315
361.066333135453	139.64357568822	781.023661443188	1669.39932886217	175.29511719989	2451.60494269567	1061.59975527923	138	2158.68773699696	1828.38555681484	146.457981569284	2602.26556149635	1668.74047398012	127	3636.28898485188	1525.38917047703	135.013077025505	2207.85074704932	807.830693212612	125	1670.17207902555	1398.57076371988	144.958493500288	2013.4127927214	1214.96152955809	138.345839128441	2352.67908682864	1857.03896572443	159.523173815352	2634.22078090871	1400.22675246582	137.209378078494	2546.19280422236	1399.17352940095	138.001327222897	1920.25618416594	900.693534499318	126.179616643789	2195.34611568222	1559.65131472401	126.995349747749	2812.30740054804	313.61379998457	126	869.899791456906	2518.35370140278	134	4107.49201470666
360.800614599433	139.673656294385	779.809098309467	1668.54733579474	175.214712391071	2450.14754358301	1060.3655185172	138	2154.96507640524	1825.72509601153	146.45962796364	2595.13852799243	1666.0558469031	127	3625.42472444996	1524.02296736398	135.004650252251	2201.76810006441	806.665639284941	125	1666.08794520215	1396.16578047024	144.917770049098	2006.71147428908	1213.58224540561	138.347052245515	2348.22560694322	1855.35707756461	159.469635196518	2626.90459376836	1399.06509155575	137.225943644269	2541.28799655181	1397.97848359587	138	1915.04574606987	899.833334273895	126.196301052989	2189.85668142029	1557.13647408956	126.988250197392	2802.27987755877	313.361863219616	126	868.277731083384	2516.89003678659	134	4108.74927299488
360.464454638951	139.682751651199	778.269575022779	1666.97002034017	175.137676600757	2447.30100760579	1058.90987715929	138	2150.65299513381	1823.06484185982	146.440407952071	2588.06673615169	1663.20172495405	127	3614.4595444079	1523.0907450493	135.001327222897	2196.88554271794	805.379629593681	125	1661.76312186634	1394.35270487145	144.856613122982	2001.05404289545	1212.01881507627	138.338106715335	2343.84490437319	1854.65833444778	159.416990919207	2621.46470982228	1397.99806739522	137.237024504179	2537.206423725	1396.87826595412	138	1910.54768557286	898.966905038773	126.202164422313	2184.05757867625	1554.31304975428	126.974893555147	2791.36358151347	313.09318158736	126	866.36651151607	2515.46271202555	134	4109.89269463403
360.071046500737	139.673127237637	776.407967348203	1664.71215764164	175.058630014454	2442.8225186262	1057.27164714531	138	2145.76364994472	1820.49156604776	146.400573708894	2581.12494390931	1660.16336640806	127	3603.40188976009	1522.47007045391	135	2193.05027354803	803.997039903717	125	1657.27982585926	1393.06751972959	144.774209448794	1996.48505645473	1210.3896152864	138.317293244546	2339.81439961844	1854.82130526681	159.363994170883	2618.09833672964	1397.03337809739	137.240773569906	2534.10084296946	1395.91050934703	138	1907.00525209358	898.176486434663	126.196301052989	2178.35116172511	1551.40093411671	126.954626296559	2780.31438041901	312.837042965066	126	864.357129948848	2514.36380364993	134	4110.95012094138
359.642849083834	139.649360433535	774.267136537011	1661.92909956649	174.971641283717	2436.68955349899	1055.53070771909	138	2140.41388303846	1818.10378303531	146.344084190483	2574.39014734127	1656.94458495631	127	3592.1703873807	1521.97087077019	135	2189.84503672047	802.547440815367	125	1652.68745571114	1392.13314751662	144.673127237637	1992.77250406666	1208.82126473352	138.284830350272	2336.30365156848	1855.57335889527	159.309936795125	2616.58365129045	1396.16024335162	137.237024504179	2531.92539232748	1395.08259291584	138	1904.44387651182	897.529790243472	126.179616643789	2173.07603587207	1548.6138304976	126.927093271276	2769.81976386932	312.619088079167	126	862.4342391259	2513.75152722903	134	4111.94552751155
359.205764161118	139.61907671751	771.929971805222	1658.86802363286	174.874340400738	2429.15558024983	1053.79381971296	138	2134.82700444071	1815.99687955904	146.280171836026	2567.95440810253	1653.57586412037	127	3580.63861296367	1521.37525485167	135	2186.68447430344	801.059497087434	125	1647.99501752578	1391.28763910731	144.559229858837	1989.44319838716	1207.42423869461	138.243409064164	2333.34273164104	1856.53837437225	159.255158866772	2616.3108082122	1395.3607273999	137.225943644269	2530.45552666111	1394.38507682998	138	1902.68989293028	897.069203162605	126.15462082999	2168.45188107527	1546.13238721267	126.892489880959	2760.40100253397	312.457384854273	126	860.746221453074	2513.63592889077	134	4112.89328544007
358.786168347432	139.589317320633	769.504174145789	1655.827459431	174.767822189035	2420.71387314062	1052.17548245532	138	2129.28203143387	1814.24375665244	146.219813076059	2561.89804515706	1650.1126760078	127	3568.66844740507	1520.48380824761	135	2182.93635003843	799.558694843959	125	1643.16689577402	1390.232892245	144.440770141163	1985.86597307845	1206.26926515166	138.197890133747	2330.8192734583	1857.30695414749	159.201213163101	2616.40007834347	1394.61748121612	137.208050855597	2529.34049734508	1393.80524885842	138	1901.42221542571	896.805787771096	126.124861433113	2164.54296129179	1544.08260307923	126.853544085403	2752.33320780389	312.361812716807	126	859.37978126031	2513.8963163496	134	4113.77596073503
358.404818124876	139.562570043645	767.107315647556	1653.10134405963	174.65654789727	2412.03145067805	1050.77667346811	138	2124.07722638604	1812.88368925093	146.171033302703	2556.29879281974	1646.62874912745	127	3556.19820169808	1519.15716668349	135	2178.08732801047	798.064610820839	125	1638.15692980069	1388.69763064007	144.32819998526	1981.40905257692	1205.37592146336	138.152861104806	2328.51535996105	1857.51739272133	159.149538075452	2615.89855557866	1393.91812242745	137.18426689604	2528.19395839204	1393.33299547563	138	1900.26433692734	896.72032308411	126.094153476797	2161.26509157965	1542.52463026884	126.813195892475	2745.63652251823	312.332056019704	126	858.353097449857	2514.32721276588	134	4114.56321355474
358.076990628531	139.539310333661	764.844170736797	1650.92196583675	174.547212857342	2403.80466167666	1049.664449801	138	2119.46145376835	1811.90744908055	146.138736624767	2551.1979619121	1643.20156935178	127	3543.26704329143	1517.34097163831	135	2171.85479815147	796.591373802848	125	1632.93040881319	1386.49740330153	144.230440803457	1975.58748607112	1204.71746104531	138.114957402811	2326.1598990437	1856.94314754102	159.103207600203	2613.98494465292	1393.26584457015	137.155948052887	2526.67033275191	1392.97738894295	138	1898.87463356623	896.768923681861	126.065807178367	2158.40532632754	1541.45367825219	126.775357386182	2740.08785779397	312.358754848513	126	857.609673491516	2514.69220889739	134	4115.18711483396
357.807648457055	139.516865575512	762.783573477839	1649.41611235226	174.445870826151	2396.60670186293	1048.86142033053	138	2115.5757750847	1811.25865469267	146.122582951003	2546.57991495164	1639.90302709269	127	3530.0244856011	1515.06964021673	135	2164.24691707846	795.152374527329	125	1627.4913904313	1383.57635406449	144.155136679626	1968.18512444495	1204.22900481786	138.089609117999	2323.51109626034	1855.53081791442	159.064502673146	2610.17232484269	1392.66856343859	137.124861433113	2524.55929584054	1392.75968380823	138	1897.04447061063	896.889435763641	126.042050674087	2155.67572855618	1540.80489987518	126.744296958853	2735.30110792917	312.422444899829	126	857.03442282203	2514.76929443891	134	4115.54628914975
357.594961123798	139.493755296254	760.95190898724	1648.58696704032	174.357301101939	2390.77581650187	1048.3435362477	138	2112.43118932011	1810.8413907224	146.118809488912	2542.3662362281	1636.78685749414	127	3516.72390475297	1512.44912444289	135	2155.5533297047	793.763202304987	125	1621.90447778836	1380.01630689241	144.107336395755	1959.31058429025	1203.835818613	138.080902728005	2320.42101795061	1853.41791730421	159.035529024564	2604.42330658565	1392.14527017639	137.094153476796	2521.83224069551	1392.72113473651	138	1894.75417695547	897.023790433816	126.023779221956	2152.78398374564	1540.49542098921	126.72253626103	2730.84063719845	312.501920211648	126	856.483319331595	2514.41934974842	134	4115.50984924285
357.429205423499	139.469187197517	759.330095319952	1648.32543233222	174.283181256141	2386.36025036275	1048.04695376925	138	2109.90734620391	1810.53867595936	146.119874853948	2538.42233083581	1633.88794099165	127	3503.67274595979	1509.62951984332	135	2146.26289920502	792.44493712138	125	1616.29427898984	1376.01613203633	144.088207426049	1949.36997788907	1203.47381196935	138.089306783583	2316.87027522691	1850.89172450455	159.016400054859	2597.14961779984	1391.71409298105	137.065807178367	2518.63653768145	1392.90949300223	138	1892.17475507994	897.12513435121	126.013077025505	2149.51694821351	1540.4389372947	126.7120826817	2726.3599856564	312.576426169329	126	855.821869213545	2513.59374984916	134	4114.95120854374
357.298462294703	139.446659702933	757.862684532139	1648.44781557815	174.222450366398	2383.13104333838	1047.88718915339	138	2107.78240399105	1810.23869733712	146.11978694057	2534.57849172504	1631.22421664124	127	3491.18397788432	1506.76993639426	135	2136.94651217971	791.226973973486	125	1610.82835912289	1371.8471731773	144.095284258731	1938.96938782227	1203.1039448826	138.113487594189	2312.9906630223	1848.31210204845	159.007304698044	2589.12624232424	1391.38616797515	137.042050674087	2515.26866252773	1393.36598302948	138	1889.63279902535	897.174035194169	126.009300504501	2145.79906155917	1540.57937849743	126.712113681318	2721.70692114478	312.630748102723	126	854.960852623388	2512.34797077994	134	4113.76301553455
357.190246409015	139.431145727602	756.477593170221	1648.7453566556	174.172348107746	2380.67011960277	1047.77810218212	138	2105.79648946924	1809.85989039867	146.113897378801	2530.67312625242	1628.80122629315	127	3479.55390924332	1504.00576902246	135	2128.14497462638	790.141014847448	125	1605.69990902853	1367.79065047943	144.1239101739	1928.78779135381	1202.72374583196	138.149110360391	2309.02943427778	1846.02901958847	159.005977475148	2581.28970034312	1391.16493576182	137.023779221956	2512.08937074878	1394.11708442309	138	1887.52214060442	897.178152545962	126.013077025505	2141.73235666817	1540.89564042491	126.720517736897	2716.98961432303	312.659358910896	126	853.887902588385	2510.81161124646	134	4111.91592724445
357.09680792259	139.427425916772	755.104808496245	1649.0335453987	174.13083890826	2378.48275774707	1047.65147515655	138	2103.71103489186	1809.36571187521	146.101082211157	2526.58742950333	1626.61184532625	127	3469.01897385443	1501.42306129738	135	2120.26451136131	789.213367734244	125	1601.08955838269	1364.0741214538	144.1669121072	1919.43243730304	1202.35471483975	138.191454359776	2305.29299207851	1844.28902981269	159.011749802608	2574.51585727985	1391.03555019793	137.011749802608	2509.43170484742	1395.15072918422	138	1886.19653189282	897.166596508927	126.023779221956	2137.57008997576	1541.39543649345	126.734633934993	2712.53898714219	312.665956929356	126	852.665735936866	2509.14486200977	134	4109.46085883904
357.013704375657	139.438827985968	753.701796055104	1649.18752720827	174.095480699693	2376.14468484498	1047.46537843935	138	2101.38157546359	1808.76067389434	146.082403674188	2522.29402577587	1624.64205125631	127	3459.72745709517	1499.0472134855	135	2113.51245250062	788.457828115694	125	1597.1285625551	1360.82681400533	144.215777756107	1911.31792301827	1202.03217598344	138.236392416426	2302.06969410674	1843.18949713024	159.023779221956	2569.40714389308	1390.96846067247	137.004650252251	2507.50855727664	1396.41168229936	138	1885.85996941175	897.179486883458	126.04072345119	2133.6554328527	1542.08946689107	126.752038966359	2708.79777274829	312.660207253538	126	851.415157041555	2507.49470399329	134	4106.55985330461
356.94096846293	139.463222140223	752.263676649506	1649.15666905428	174.065807178367	2373.39305905519	1047.20848730621	138	2098.7842845873	1808.08352609564	146.061156926116	2517.8716807398	1622.86186047769	127	3451.70255795758	1496.85187321219	135	2107.88950167492	787.863318520677	125	1593.8646830909	1358.06663916842	144.263347540875	1904.61468566269	1201.78588295296	138.279482263103	2299.55883528793	1842.67132644032	159.04072345119	2566.17458055157	1390.91967269739	137.001327222897	2506.35529831822	1397.79476009909	138	1886.49757824121	897.249837258054	126.061156926116	2130.31893926379	1542.96131704893	126.769813188318	2706.15762973039	312.653278519178	125.998672777103	850.271711581935	2505.9563116898	133.998672777103	4103.46448987695
356.880908194574	139.493770413882	750.824382165192	1648.96943354416	174.043377896984	2370.18471349494	1046.89804344049	138	2096.01575979728	1807.39545757254	146.042050674087	2513.49508317573	1621.22848677894	127	3444.83350611605	1494.78357477967	135	2103.22165279016	787.394465699664	125	1591.24826514899	1355.71852589205	144.303360739293	1899.24756365764	1201.62297537927	138.316859967263	2297.81728867943	1842.55219936499	159.061156926116	2564.61698650679	1390.8372326089	137	2505.81709954017	1399.15595953428	138	1887.8612806747	897.389755458333	126.082403674188	2127.77673449451	1543.94383670454	126.786757417551	2704.79690150343	312.650741307693	125.995349747749	849.337256161074	2504.54444459113	133.995349747749	4100.46720810611
356.83678341107	139.519571772682	749.451427634241	1648.70818217939	174.029756697104	2366.70541117586	1046.56802362836	138	2093.26988186009	1806.75942708942	146.029756697104	2509.4152407577	1619.70072100391	127	3438.90601705766	1492.79546610914	135.001327222897	2099.23446300852	786.997764421089	125	1589.14388804086	1353.65862008057	144.33378907887	1894.95643512944	1201.5291345102	138.345751215063	2296.75215210682	1842.59610653442	159.083730897085	2564.20722182566	1390.67877049205	137	2505.59226989529	1400.34395964089	138	1889.52169186465	897.588446088764	126.101082211157	2126.06049229963	1544.91877400371	126.801446089867	2704.59295260316	312.649243199226	125.988250197392	848.640966396232	2503.1929446861	133.988250197392	4097.85552254208
356.809676422159	139.53000221848	748.225080241156	1648.48358114339	174.029477080364	2363.30443856734	1046.26028046882	138	2090.78239880925	1806.22949730921	146.028149857467	2505.89828292228	1618.24381586607	127	3433.64093622042	1490.87221592853	135.004650252251	2095.63060261463	786.614546339919	125	1587.35792644623	1351.76474736965	144.357594493271	1891.38337853787	1201.4774103443	138.364517665409	2296.14711383454	1842.59187197927	159.107059686304	2564.25655247113	1390.43173768375	137	2505.32173861595	1401.24400397595	138.001327222897	1890.98568783189	897.811410354737	126.113897378801	2125.0020774467	1545.74493728505	126.81238735693	2705.13877215038	312.63660731709	125.976220778044	848.128689096704	2501.78287062456	133.976220778044	4095.8537559657
356.799162800584	139.51834032925	747.213911345943	1648.40070660783	174.046156751962	2360.39533596029	1046.0131496491	138	2088.7607505469	1805.8431854282	146.041506499712	2503.15895058831	1616.83894897816	127	3428.77926139719	1489.03932832389	135.011749802608	2092.17571125974	786.195835009103	125	1585.69284605907	1349.95513661048	144.380394225742	1888.17433807427	1201.43851227948	138.374512530059	2295.70630634249	1842.40798474956	159.131624656556	2564.07829333499	1390.12170477082	137	2504.67558417449	1401.81068133402	138.004650252251	1891.81298858569	898.012460623441	126.118459717673	2124.27501150298	1546.29449678879	126.820272725157	2705.84780667226	312.595743979949	125.95927654881	847.678136464885	2500.18008136119	133.95927654881	4094.58716647763
356.805026169908	139.482977383082	746.464104622913	1648.53249689551	174.083557173799	2358.35780862274	1045.85356796872	138	2087.34768436587	1805.61632598583	146.070480148294	2501.31932581889	1615.49703523077	127	3424.13832254145	1487.36085167063	135.023779221956	2088.73851936264	785.718249268604	125	1583.9899389833	1348.20994585854	144.410839720773	1885.05095687342	1201.39537902596	138.378719269433	2295.12788063927	1842.02995447925	159.159966217385	2563.15342467526	1389.8185564715	137	2503.4468693348	1402.09219829184	138.011749802608	1891.73553357339	898.141984812228	126.115224601697	2123.47520891278	1546.48853751625	126.826011060119	2706.10646250157	312.509544125993	125.938843073884	847.136842770174	2498.27736008119	133.938843073884	4094.07266527669
356.825033608461	139.428390950576	745.979800875765	1648.90408903358	174.142059654121	2357.42583152964	1045.79211402307	138	2086.5742868986	1805.54307257241	146.113630179914	2500.35881115144	1614.24224023712	127	3419.63732536351	1485.90644535878	135.04072345119	2085.29743095931	785.184205634099	125	1582.16003672261	1346.5555283025	144.456834880464	1881.84520925227	1201.34239194078	138.381516300952	2294.16029220304	1841.55166566784	159.196127329702	2561.22661389266	1389.62000933802	137	2501.59901393769	1402.22368477518	138.023779221956	1890.72503073803	898.160940603592	126.105732463407	2122.21305774756	1546.32605920201	126.830542399373	2705.42889757528	312.368551736793	125.917596325812	846.369549148296	2496.04898545321	133.917596325812	4094.23309759568
356.857128972618	139.365745634072	745.73136157775	1649.48443125697	174.219813076059	2357.64917200386	1045.81953056197	138	2086.36407606388	1805.59373462012	146.167339822261	2500.12233078674	1613.10957276041	127	3415.29184223141	1484.72964829532	135.061156926116	2081.9176966143	784.622058216867	125	1580.19164992855	1345.0461231186	144.522906616466	1878.50446650619	1201.27870183859	138.38601289266	2292.63810922021	1841.13475386669	159.244469088175	2558.32539356654	1389.62371823548	137	2499.25729258875	1402.39089018512	138.04072345119	1888.98526080272	898.045745326895	126.094153476797	2120.19068503998	1545.87646766399	126.83643363983	2703.5401787459	312.175762647172	125.898917788843	845.294704574999	2493.56252698829	133.898917788843	4094.92323538913
356.90024501174	139.306439287437	745.65560529994	1650.19881131374	174.309145484607	2358.87269499362	1045.91079168139	138	2086.54112678094	1805.7199456156	146.224209336535	2500.33095198841	1612.12007572251	127	3411.15670941713	1483.83877111557	135.082403674188	2078.69349905771	784.069925722888	125	1578.12618202742	1343.72386468914	144.608457696836	1875.05220450938	1201.193549413	138.394203604589	2290.50427058339	1840.95148943666	159.308194225395	2554.72348646199	1389.8965253636	137	2496.67134031392	1402.77795304664	138.061156926116	1886.89326352345	897.789883368842	126.084936148072	2117.25107502393	1545.2543750574	126.84537917001	2700.40424481736	311.94655755654	125.8861026212	843.907792174483	2490.97748330037	133.886102621199	4095.97473626351
356.951220226644	139.262624080991	745.671324023071	1650.9334188537	174.399263641452	2360.77364421359	1046.02383019834	138	2086.86406150275	1805.84599771909	146.27746373897	2500.62405770337	1611.26556737613	127	3407.26485994379	1483.18044924277	135.101082211157	2075.69753200391	783.55830033923	125	1576.02261173005	1342.5868785037	144.706136206171	1871.54121316211	1201.05013353993	138.404603466625	2287.79337795159	1841.12186612982	159.386702465582	2550.84474739438	1390.44785822113	137	2494.14057888051	1403.51393582706	138.082403674188	1884.9008402346	897.40359291895	126.08144690238	2113.38474055076	1544.58723411558	126.857761060371	2696.17730740005	311.708594211002	125.881540282327	842.28021865389	2488.5168436371	133.881540282327	4097.22718763887
357.005772327461	139.242190606065	745.691179431858	1651.55182615492	174.475672685038	2362.91089535942	1046.10440143362	138	2087.05405394149	1805.86926862357	146.319411022913	2500.59510809981	1610.49194504753	127	3403.54072699679	1482.6365754981	135.1138973788	2072.9207143659	783.092322599095	125	1573.90046192786	1341.5659035094	144.80376099821	1867.98959266349	1200.77221050593	138.41566369631	2284.58549028985	1841.65467611206	159.475516117206	2547.12007587141	1391.21094882092	137	2491.91303330717	1404.62576998424	138.101082211157	1883.39945429746	896.905617596006	126.084936148072	2108.69600161065	1543.97280298511	126.874352818591	2691.10838280176	311.494414825021	125.884775398303	840.534058105329	2486.41446989742	133.884775398303	4098.52950368055
357.05815474691	139.247814835204	745.636172504399	1651.91179652807	174.522435662575	2364.80213767945	1046.08887103708	138	2086.83918183504	1805.66279344389	146.345189110238	2499.84812509654	1609.6855497495	127	3399.75912459906	1482.02441920945	135.118459717673	2070.24603917884	782.637086522807	125	1571.70731831928	1340.50601664019	144.886779604697	1864.33782658522	1200.25107442043	138.423048425629	2280.96934749043	1842.43066352737	159.565281803037	2543.86901045504	1392.05015072156	137	2490.12403265798	1406.02173446553	138.113897378801	1882.62082135167	896.3224348615	126.094153476797	2103.36619105551	1543.45691200857	126.894267536593	2685.45924303914	311.337859771565	125.894267536593	838.81635108544	2484.87257654413	133.894267536593	4099.76976541835
357.101626385532	139.277740448421	745.443156418879	1651.88749625125	174.524714144684	2365.99546683026	1045.9089420575	138	2085.9784490613	1805.07994779868	146.352656190714	2498.03109783602	1608.69030861368	127	3395.50671471599	1481.13061441847	135.1138973788	2067.42635839671	782.119829726817	125	1569.28909054975	1339.18705264891	144.939543816091	1860.41137599302	1199.35984978964	138.422506951028	2276.9834008955	1843.21108559348	159.642043317636	2541.18871847976	1392.7834089983	137	2488.73018316484	1407.50309956949	138.118459717673	1882.55586355693	895.68147829417	126.105732463407	2097.59994409842	1543.02256961204	126.916269102915	2679.4201425066	311.265207034615	125.905846523204	837.258548935334	2484.010421926	133.905846523204	4100.86585054244
357.127775477744	139.325121299174	745.074475895846	1651.40140082425	174.471833806049	2366.15279855784	1045.50824306994	138	2084.29739853768	1803.98796451672	146.343996277105	2494.88979856824	1607.33297807876	127	3390.24669855774	1479.74976327744	135.101082211157	2064.12865496346	781.442443066446	125	1566.41249835902	1337.35687093794	144.950764699894	1855.93918958301	1197.97682767547	138.410996288605	2272.61014692598	1843.67665456356	159.690652274995	2538.92818775708	1393.21283163849	137	2487.52698733024	1408.79977948478	138.113897378801	1882.95532005109	895.004443066737	126.115224601697	2091.58078792428	1542.5885192679	126.937515850987	2673.07196446032	311.289684091489	125.915063851928	835.947727546369	2483.82367138274	133.913736629031	4101.76180031598
357.131710466465	139.380917720268	744.517509333122	1650.43911739584	174.357913709572	2365.10069315946	1044.84767254019	138	2081.7020992663	1802.28773052028	146.323265157472	2490.29062434451	1605.46909248545	127	3383.44236530248	1477.73223097513	135.082403674188	2060.01124516595	780.505222486708	125	1562.82099615999	1334.77777229874	144.916188834427	1850.59706907179	1196.023206257	138.385764413481	2267.78376193672	1843.5233135321	159.696826191105	2536.75003648803	1393.1970707358	137	2486.2299088054	1409.65878854417	138.101082211157	1883.4205035801	894.318992956358	126.118459717673	2085.45841482209	1542.07049909505	126.953299073663	2666.45329021786	311.411837427546	125.91855309762	834.914100675774	2484.21548258757	133.91390284537	4102.43681474464
357.113099212651	139.435321722763	743.788917129944	1649.0844874029	174.18539661614	2362.88975037533	1043.9281305493	138	2078.2080362091	1799.95284879138	146.297116065259	2484.24746548786	1603.02657568785	127	3374.70975539633	1475.02743907852	135.061156926116	2054.8248987849	779.236237154003	125	1558.31477455438	1331.27829440635	144.837558622329	1844.08828176248	1193.48873926851	138.347052245515	2262.42297389991	1842.54682143518	159.65047299818	2534.25547862797	1392.69599397835	137	2484.5880913325	1409.92018453449	138.082403674188	1883.54733927466	893.650298916193	126.113897378801	2079.34761164203	1541.40919293712	126.959820723185	2659.64998306864	311.618512216159	125.915063851928	834.131370360511	2485.00394027737	133.901986826423	4102.9168984412
357.0773964648	139.481672877862	742.929829512602	1647.49192778337	173.963747278339	2359.78749816511	1042.78471905952	138	2073.9365574428	1797.02169506064	146.271767780447	2476.91048247747	1600.04556175556	127	3363.97405521514	1471.71642677802	135.04072345119	2048.51742150731	777.620975088956	125	1552.83148391447	1326.80008244537	144.722329213458	1836.23830239647	1190.4433056209	138.298181430295	2256.49084313129	1840.71504115672	159.549390787023	2531.13611005512	1391.80699000887	137	2482.50296293615	1409.58515285534	138.061156926116	1883.07970678281	893.032703585375	126.101082211157	2073.33810002335	1540.63886532943	126.952721172828	2652.88327794506	311.888138423565	125.905846523204	833.528730780431	2486.00101286917	133.877417048997	4103.25432605386
357.035104784272	139.513942030947	741.997822500438	1645.86750424926	173.707873213679	2356.21609247854	1041.48784609647	138	2069.09710985576	1793.59577240791	146.251306780671	2468.53236264345	1596.67654219738	127	3351.54632915216	1467.99387991826	135.023779221956	2041.2872263021	775.711998780554	125	1546.4992488184	1321.41043198877	144.580898809374	1827.06624287539	1187.03511255065	138.245446539832	2250.03505554206	1838.20307945352	159.398115704063	2527.31592278068	1390.76676983589	137	2480.12123122389	1408.84344785332	138.04072345119	1882.04160306567	892.508678576004	126.082403674188	2067.52863860078	1539.91335198421	126.930847074603	2646.61752042063	312.195682409561	125.894267536593	833.020406646673	2487.07425312572	133.841794282795	4103.54808918458
357.001581214671	139.53080038463	741.055399605408	1644.43264563792	173.434246453814	2352.65488322277	1040.13246896702	138	2063.94966884193	1789.81840323679	146.236740149838	2459.41488649614	1593.15648156959	127	3338.0827385094	1464.13579568134	135.011749802608	2033.55900973967	773.625344817281	125	1539.63480122757	1315.29284779313	144.423042863408	1816.81025837827	1183.45358313394	138.194800106805	2243.215206348	1835.33587867066	159.20900211481	2522.98938777687	1389.88678710472	137	2477.81248275179	1408.0212344302	138.023779221956	1880.74852190626	892.123515975495	126.061156926116	2062.01357439913	1539.48957358823	126.896792399797	2641.49194970785	312.516751469689	125.884775398303	832.516176806409	2488.18336105124	133.79983925023	4103.88233197566
356.991678516775	139.533077845653	740.158300886075	1643.37880147289	173.158656149943	2349.5322441851	1038.81921953371	138	2058.75996860522	1785.84140280881	146.226057750093	2449.86478812553	1589.76954091788	127	3324.44611601659	1460.44433815698	135.003323029354	2025.88696370867	771.523986491611	125	1532.68179045786	1308.722466616	144.256392614069	1805.89309680262	1179.90525817845	138.15301129058	2236.28632395093	1832.50439571983	158.998672777103	2518.53363890979	1389.47816753713	137	2476.04935095158	1407.4990873243	138.011749802608	1879.69379205665	891.920338946948	126.04072345119	2056.88738284788	1539.66703288508	126.856439399695	2638.18588249993	312.829149759577	125.881540282327	831.938664443713	2489.38553818665	133.758413156949	4104.32356850339
357.015885453792	139.523845457825	739.341076957991	1642.82444658851	172.892504336639	2347.11131008631	1037.63473574869	138	2053.74751564308	1781.80469591661	146.215241447818	2440.15317111218	1586.77968095373	127	3311.51421420532	1457.18335036622	134.996676970646	2018.82675177989	769.578636039877	125	1526.12242144017	1302.02507307138	144.088381149336	1794.85674188566	1176.5723154798	138.125237396797	2229.56988329353	1830.03989795611	158.785020410043	2514.3851092602	1389.75249553279	137	2475.25983078023	1407.58693591249	138.004650252251	1879.38517925944	891.927324488095	126.023779221956	2052.21732431704	1540.69607687665	126.816514114655	2637.21436534003	313.113078168277	125.8861026212	831.2229960377	2490.78306116435	133.723863483927	4104.89164035297
357.079067437723	139.507554771188	738.60582435484	1642.8031489225	172.642781470414	2345.42751297414	1036.64372475663	138	2049.04538450482	1777.83260376284	146.20095130524	2430.49260117605	1584.38219129576	127	3299.99128718416	1454.53207724256	134.988250197392	2012.80440761174	767.93559942222	125	1520.36832926112	1295.53081322543	143.924901023856	1784.2605016329	1173.59064650186	138.113835327601	2223.39528846205	1828.13056585114	158.584157018181	2510.88570859099	1390.76667914269	137	2475.67814689182	1408.43962186913	138.001327222897	1880.16831724105	892.14507214066	126.011749802608	2048.02491118852	1542.69161435142	126.785020410043	2638.74235394157	313.350626166982	125.898917788843	830.319448075758	2492.45700696458	133.702616735854	4105.54097726035
357.175683554953	139.487121296262	737.923720117761	1643.24580009865	172.411384670143	2344.29441526572	1035.87229799225	138	2044.69755983979	1774.02069544075	146.180943866686	2421.05394749373	1582.67408571281	127	3290.29786238024	1452.56125742922	134.974893555147	2008.03835429088	766.686405366651	125	1515.68357805198	1289.53619452547	143.771757243398	1774.5902374851	1171.03903180749	138.119607655062	2218.03623662133	1826.77571732939	158.409102713265	2508.1621422854	1392.40390635729	137	2477.25128286394	1410.00691538878	138	1882.09298140152	892.54769864207	126.004650252251	2044.28283182458	1545.58315439951	126.767642903526	2642.49036492561	313.52542378035	125.917596325812	829.192663463908	2494.41026453213	133.698054396982	4106.18618298196
357.292559288608	139.466548228489	737.239538760774	1644.00084584377	172.198781775496	2343.34457476817	1035.31509141472	138.001327222897	2040.66957381513	1770.44800524456	146.15462082999	2411.97887114433	1581.63983735303	127	3282.51448636949	1451.23112930675	134.954626296559	2004.50606895692	765.853229697514	125	1512.13896855786	1284.27234610704	143.637592606009	1766.18393760655	1168.94988910532	138.141711920709	2213.68414079415	1825.81474855629	158.267297050918	2506.11090126445	1394.41193917356	137	2479.65565078776	1412.0552093395	138	1884.89636280854	893.085000006495	126.001327222897	2040.92827862358	1549.11797311462	126.767642903526	2647.76370102576	313.624235771393	125.938843073884	827.828444885533	2496.54398507254	133.711048316283	4106.72001895749
357.41197577809	139.448395689356	736.484940704138	1644.87067288568	172.005005585711	2342.13031248612	1034.94438495316	138.004650252251	2036.88848379408	1767.19383672434	146.124861433113	2403.4159265581	1581.16540577641	127	3276.45511242438	1450.41116363588	134.927093271276	2001.98930479784	765.391389000345	125	1509.63181189556	1279.88213560478	143.528977567213	1759.20587868551	1167.31977122056	138.177334686911	2210.42124463166	1824.98463892438	158.161114154774	2504.4217566269	1396.46596062873	137	2482.36608909419	1414.22487031925	138	1888.05573829878	893.692258058435	126	2037.89284244176	1552.90480169598	126.783693187146	2653.59950059936	313.639566257466	125.95927654881	826.240970023306	2498.65933971057	133.73973461998	4107.06569910725
357.516588866061	139.433303060688	735.599142815126	1645.65901960717	171.832491967049	2340.23722564042	1034.72592826364	138.011749802608	2033.28848989428	1764.34910172086	146.094153476796	2395.54268336801	1581.08734378158	127	3271.78317454636	1449.92975262152	134.893817103856	2000.15904452647	765.212569489968	125	1507.94167959412	1276.42710138932	143.452457892572	1753.65788754937	1166.13040593054	138.221755231254	2208.23913578918	1824.01687420525	158.089534648946	2502.690738927	1398.25430726422	137	2484.80117393564	1416.13039039338	138	1890.93060685244	894.301300669533	126	2035.12294562945	1556.49574641547	126.810536639507	2658.95711078886	313.571052881929	125.976220778044	824.471883808264	2500.49900649139	133.779919725055	4107.19977353052
357.591774076895	139.420588758127	734.541019139743	1646.21299771523	171.685598037568	2337.38479224363	1034.63499695518	138.023779221956	2029.84890181083	1762.01453290116	146.065807178367	2388.5692200841	1581.22725804216	127	3268.14401309034	1449.61159505009	134.858194337653	1998.67751108709	765.208476079597	125	1506.80759787154	1273.88854658821	143.410857651223	1749.41903423418	1165.36351957841	138.267997793125	2207.06499176328	1822.72374558042	158.047483974859	2500.55118286481	1399.55500258813	137	2486.47210031767	1417.45893233723	138	1892.930722563	894.854925324871	126	2032.5873131707	1559.48413909061	126.840039344837	2662.92871251451	313.427484019629	125.988250197392	822.586526882151	2501.81515791957	133.826011060119	4107.14986074744
357.629945781616	139.408498950251	733.304531672833	1646.44775087121	171.571028241299	2333.4980506843	1034.66373547084	138.04072345119	2026.61702215862	1760.29351260174	146.042050674087	2382.72394963281	1581.45008415788	127	3265.29590187344	1449.33125906233	134.824945695083	1997.30129116714	765.285427905457	125	1506.01134531948	1272.20497349996	143.404452461014	1746.31908815286	1165.00452239436	138.309133066754	2206.78375938367	1821.04591881408	158.029477080364	2497.77224590328	1400.27587528994	137	2487.0876425457	1418.0359830527	138	1893.65397237749	895.312965035682	126	2030.27833964486	1561.58042119137	126.86259059813	2664.90032639855	313.226903115852	125.995349747749	820.661944243244	2502.42035109161	133.872222622371	4106.99454797158
357.630629841942	139.395396437723	731.915377002756	1646.34415059162	171.496693307131	2328.70554689688	1034.81915638549	138.061156926116	2023.69574054781	1759.26115157986	146.023779221956	2378.20514407272	1581.67648042246	127	3263.16087965209	1449.02519789647	134.799136608139	1995.94153835566	765.378962768552	125	1505.42540688724	1271.28151785513	143.428846615269	1744.1997023994	1165.04351145931	138.33984102307	2207.26979600442	1819.07101248905	158.029756697104	2494.33259179981	1400.46387855404	137	2486.61052388734	1417.85544481114	138	1892.97474182772	895.653240757541	126	2028.19808387413	1562.65487634792	126.870994653708	2664.63453421968	312.991479751146	125.998672777103	818.775537083182	2502.231001496	133.913736629031	4106.82823374379
357.595986896906	139.380917720268	730.424143894244	1645.9229041751	171.467981157271	2323.28344853476	1035.10912784198	138.082403674188	2021.20993464351	1758.92333542192	146.011749802608	2375.12789190194	1581.8908638454	127	3261.77616556768	1448.6919780085	134.785020410043	1994.64681044374	765.463624700333	125	1505.01481554269	1271.01080965172	143.475874925436	1742.93720253329	1165.46404894316	138.355484221852	2208.39145409458	1816.99356900859	158.042050674087	2490.41722613602	1400.26718396063	137	2485.2280802861	1417.05383315526	138	1891.04401564697	895.870909248633	126	2026.34052701585	1562.74473057046	126.861263375233	2662.26222591118	312.746063539669	126	816.997646023387	2501.28319532151	133.947526746202	4106.73982760126
357.529659302873	139.365046584214	728.888881364031	1645.21848437777	171.487986917137	2317.5542161055	1035.52981240345	138.101082211157	2019.24940799008	1759.20224315925	146.004650252251	2373.46501453313	1582.12054365029	127	3261.20720841183	1448.37213817175	134.785020410043	1993.55070751609	765.545646108983	125	1504.80378679821	1271.28004919747	143.536233685402	1742.44296308521	1166.23349295862	138.354670948706	2209.99432329131	1815.04746128006	158.061156926116	2486.32104992531	1399.87752719979	137	2483.23875078132	1415.84966663596	138	1888.19255656436	895.966150791733	126	2024.66366797058	1562.00685957024	126.835389092586	2658.17228396932	312.511057559624	126	815.373890417567	2499.70810099725	133.971570525793	4106.76357300748
