Light	Light	Light	Light	Light	Light	Light	Light	Light	Light	Light	Light	Light	Light	Light	Light	Light	Light	Light	Light	Light	Light	Light	Light	Light	Light	Light	Light	Light	Light	Light	Light	Light	Light	Light	Light	Light	Light	Light	Light	Light	Light	Light	Light	Light	Light	Light	Light
Optode1-730nm	Optode1-Ambient	Optode1-850nm	Optode2-730nm	Optode2-Ambient	Optode2-850nm	Optode3-730nm	Optode3-Ambient	Optode3-850nm	Optode4-730nm	Optode4-Ambient	Optode4-850nm	Optode5-730nm	Optode5-Ambient	Optode5-850nm	Optode6-730nm	Optode6-Ambient	Optode6-850nm	Optode7-730nm	Optode7-Ambient	Optode7-850nm	Optode8-730nm	Optode8-Ambient	Optode8-850nm	Optode9-730nm	Optode9-Ambient	Optode9-850nm	Optode10-730nm	Optode10-Ambient	Optode10-850nm	Optode11-730nm	Optode11-Ambient	Optode11-850nm	Optode12-730nm	Optode12-Ambient	Optode12-850nm	Optode13-730nm	Optode13-Ambient	Optode13-850nm	Optode14-730nm	Optode14-Ambient	Optode14-850nm	Optode15-730nm	Optode15-Ambient	Optode15-850nm	Optode16-730nm	Optode16-Ambient	Optode16-850nm
840.452890622343	161	1434.93215911908	1364.7457660235	269.827651892254	2009.21409112502	939.019258311569	200.772205242399	1700.73073987194	1425.64085923034	162.530631468517	2030.33066571238	1034.61949328589	189.898917788843	1934.88791015737	1187.73633261892	151.053800476695	1859.00589239751	959.826825924585	151.662704657926	1894.93705263467	1242.84344095694	208.755357188539	2002.0907101422	853.561115737394	165.261065583996	1400.88711684528	1826.27373823351	224.077579698651	2762.43666005698	1096.74908210005	226.136204150883	1944.27418775516	1431.25850987475	147.225536559432	2018.31956549768	979.962749792248	214.230440803457	2155.75672628138	1443.02488905742	135.884775398303	2773.91400880066	936.756359220034	152	2175.66432735851	1098.30801133371	156.884775398303	2073.75441600554
838.940399194299	161	1429.14268638787	1363.58161736054	269.682177698707	2005.10752258244	936.435545316465	200.78045807117	1693.00287910489	1424.09605158834	162.53852145688	2026.39157077365	1032.86336746447	189.8861026212	1928.71617118509	1186.42209478406	151.09091362322	1854.7693228403	958.460888824221	151.560557081733	1889.18581342961	1241.45271330222	208.702616735854	1997.61749473177	852.55887511946	165.189717352267	1396.75977216099	1824.97656631966	224.046156751962	2756.11043757835	1095.52352298744	226.094236652574	1938.69304767236	1430.17197018948	147.244736287061	2013.07970375096	978.904979650124	214.161114154774	2151.42328227282	1441.30120493793	135.898917788843	2767.32812817957	935.867386498455	152	2171.59177372663	1097.68671617196	156.898917788843	2070.3020439565
837.674878980932	161	1424.1447692442	1362.66776913075	269.555195787453	2001.76529341887	934.189907079809	200.803698947011	1686.16965314729	1422.98250779287	162.5543124077	2023.65919782722	1031.40310377155	189.881540282327	1923.34969736792	1185.58204868376	151.140854403134	1851.73132675793	957.503029033928	151.457170196022	1884.35414737486	1240.42418365196	208.66656069237	1993.83743546896	851.820049316631	165.137334932818	1393.33931241176	1824.25759511773	224.035454555511	2751.19366499808	1094.68581607922	226.0668775022	1934.18348619542	1429.70675018015	147.261834176837	2009.37282192607	978.193296078106	214.122409227717	2147.90081445211	1440.02711433526	135.917596325812	2761.97380050805	935.324735649719	152	2168.52598983098	1097.28953708304	156.917596325812	2067.35594591514
836.752860053625	161	1420.22688798852	1362.10432628255	269.46667665205	1999.42308023596	932.424038445788	200.837760862727	1680.63382351168	1422.47131890641	162.58057693814	2022.45907481957	1030.36291344071	189.8861026212	1919.10959914167	1185.30870903827	151.202418414088	1850.09697849543	957.132657229117	151.367052039178	1880.91234988514	1239.84834697754	208.653745524726	1990.99153749487	851.363457992904	165.111986648005	1390.7565504653	1824.13008721571	224.046156751962	2747.89773892192	1094.29125541285	226.056858948414	1930.98370739273	1429.89277134996	147.278513848436	2007.38057750264	977.884027863002	214.119086198363	2145.34813305567	1439.25884794344	135.938843073884	2758.06134931005	935.150242201058	152	2166.56014668075	1097.11095343457	156.938843073884	2064.98527497377
836.193382488461	161	1417.480376547	1361.90630477723	269.426708019111	1998.12908007222	931.191879338122	200.876872874622	1676.58067209414	1422.56660957664	162.614759081045	2022.8018712986	1029.79036531272	189.898917788843	1916.1244695165	1185.5842015582	151.272553528743	1849.81968039975	957.42087109303	151.30204302696	1879.07596043267	1239.72865081274	208.665233469473	1989.14169748958	851.171182577732	165.117758975466	1389.01232987617	1824.53013429679	224.077579698651	2746.19796722697	1094.3297940243	226.065550279303	1929.13327909521	1430.66153202704	147.297209540859	2007.01161263349	977.966384185937	214.148037129269	2143.74578187032	1438.95705684865	135.95927654881	2755.46976046521	935.29566861464	152	2165.55361732964	1097.11193423015	156.957949325913	2063.13514758342
835.933117197543	161	1415.78051669659	1362.0059424788	269.43234046062	1997.73865267579	930.45760204953	200.913736629031	1673.94964191228	1423.09605937074	162.652056112736	2024.3411375678	1029.64463811219	189.916269102915	1914.2956816247	1186.26912744934	151.345201528092	1850.57646671628	958.312101471485	151.26904647628	1878.74600280946	1239.97582695921	208.696639260707	1988.1364285289	851.189420385433	165.152482233832	1387.96996382566	1825.31888125848	224.124332376365	2745.81471658926	1094.72570389926	226.088259177426	1928.45946430757	1431.84438331828	147.320895287215	2007.89482284748	978.372942348943	214.20201132925	2142.91136692925	1439.00684250533	135.976220778044	2753.78911340589	935.659284511436	152	2165.16969634688	1097.23616566437	156.971570525793	2061.65671063407
835.837670911522	161	1414.79890606509	1362.25822906987	269.470438924889	1997.9275058048	930.100840343596	200.941549271054	1672.44148688541	1423.73303937922	162.685156656985	2026.39657636409	1029.80459808954	189.932865598736	1913.31540987731	1187.11866325646	151.412078809096	1851.80445379939	959.633989597312	151.266514002396	1879.52951744093	1240.41894043063	208.737629910783	1987.62907326321	851.336751922747	165.209390496348	1387.37459281313	1826.30423091901	224.17697935345	2746.23815102113	1095.35576152765	226.118476873128	1928.60473272228	1433.19106148019	147.351623873755	2009.42149898747	978.990386552186	214.269749256314	2142.54167957167	1439.22912613007	135.988250197392	2752.412280627	936.103024129139	152	2164.95315296267	1097.41842062766	156.976500394784	2060.34430056859
835.731740842097	160.998672777103	1414.05982810502	1362.47685187398	269.520465718297	1998.25430194752	929.945269789112	200.953843248038	1671.58179999426	1424.07080037438	162.704099751588	2028.06382305251	1030.08579898768	189.941549271054	1912.73372536671	1187.81336906172	151.464184740291	1852.78867935532	961.124959558626	151.286149311173	1880.82777492099	1240.8286194486	208.772882225897	1987.14112467317	851.514973923124	165.27494368294	1386.88949771971	1827.2598800867	224.222265281455	2746.79651058988	1096.06906737616	226.145839082414	1929.09272740467	1434.39978481229	147.387246639957	2010.83072128247	979.68405906017	214.338106715335	2142.29113484755	1439.41182748968	135.995349747749	2750.66762894012	936.479806711273	152	2164.43778430572	1097.5969471129	156.971570525793	2058.98864504663
835.435621166401	160.995349747749	1413.03072235284	1362.47246546956	269.558953149386	1998.2374694618	929.798819319303	200.945416474783	1670.81579367265	1423.70662890438	162.70173043513	2028.38823593992	1030.28210760787	189.934714278332	1912.03771925871	1188.02240139181	151.493684317134	1852.77865869454	962.493115759367	151.315110541901	1881.95495387788	1240.96269831554	208.786132974689	1986.13872575412	851.618399840917	165.334760968306	1386.14536094333	1827.9515134745	224.242799738929	2746.7435817968	1096.7115444589	226.159444805528	1929.40357480888	1435.15665513794	147.423042863408	2011.31920908312	980.321480339399	214.39326901085	2141.83304396462	1439.33905112616	135.997345554206	2747.94162170818	936.661045028127	152	2163.2333588007	1097.7145126141	156.956622103016	2057.40790613861
834.804662669454	160.988250197392	1411.23391603934	1362.09458066975	269.566770331367	1997.45986036553	929.491911407979	200.913119796848	1669.62645515843	1422.33506487043	162.673562818785	2026.56733981341	1030.20805011255	189.90602024649	1910.76974781775	1187.47176108638	151.495678444903	1851.14425991981	963.477476878604	151.339416782778	1882.29266785543	1240.61575671352	208.762633369472	1984.15232886761	851.549948378314	165.375119530629	1384.80333030653	1828.17458876591	224.222779882522	2745.39473169178	1097.15552682952	226.149061780536	1929.07960721215	1435.19215984341	147.451372006383	2010.19008599899	980.797450378374	214.424007897212	2140.92921171437	1438.8290344431	135.995349747749	2743.79237906538	936.559881507449	152	2161.10713133296	1097.72808304923	156.932865598736	2055.475288749
833.756283135935	160.974893555147	1408.34347110904	1361.26096902427	269.530691619832	1995.64393628793	928.911364308213	200.855285900085	1667.63604410601	1419.81012887342	162.618893483659	2022.12745720324	1029.73726145541	189.851962870731	1908.61093088943	1186.00305637027	151.469381600652	1847.50037891031	963.896956158922	151.347581698171	1881.40292875108	1239.65812623892	208.692523672267	1980.86602023324	851.234128249519	165.386179760315	1382.61514709562	1827.7849430587	224.149067121561	2742.26285287951	1097.31811577873	226.108187102539	1927.81496832908	1434.3346755252	147.46373674129	2006.9975991304	981.043238589685	214.421444493282	2139.46435641424	1437.75567061531	135.986922974495	2738.02557221632	936.138949551269	152	2158.01326341057	1097.60119605859	156.899869048056	2053.13016220243
832.2887586125	160.953299073663	1404.25630659058	1359.97621130296	269.446553637909	1992.7148546866	928.01954394633	200.774209448794	1664.68115005952	1416.18599981128	162.542829803978	2015.03781400849	1028.82472160786	189.772882225897	1905.44642058409	1183.6086778355	151.418375455703	1841.79737061907	963.682987614182	151.33343930763	1879.10352399135	1238.06264379185	208.57317000898	1976.18383176777	850.624079034258	165.364933012242	1379.4605453693	1826.71921673017	224.018062356101	2737.14047921289	1097.16933916964	226.034474828813	1925.49833217736	1432.54171468389	147.453314161578	2001.62605495407	981.034552858759	214.381523945842	2137.44842881773	1436.07539133895	135.971570525793	2730.72792747827	935.413694330657	152	2154.08418532833	1097.30990947476	156.857411289132	2050.37922398316
830.477315472531	160.921115796128	1399.11291691793	1358.32233935871	269.317466967833	1988.81527061076	926.853938136067	200.673127237637	1660.83614711438	1411.70655968435	162.452170172532	2005.72906976691	1027.51862135462	189.673127237637	1901.38261866039	1180.44403812484	151.349856517944	1834.34567431918	962.88508976539	151.297383264146	1875.48350196336	1235.91480417289	208.411192729568	1970.25941375215	849.711392873832	165.314760770662	1375.36994342349	1825.0122575389	223.835633573796	2730.15524662448	1096.73394229683	225.930585216742	1922.23023780143	1429.9180024823	147.417170204716	1994.33330739738	980.780761043662	214.305979023086	2134.99540942566	1433.82672889836	135.947526746202	2722.24538892092	934.436096045055	152	2149.58415682417	1096.83487941442	156.805199893195	2047.28687995001
828.459928192461	160.8760898261	1393.27347429963	1356.44754547748	269.153729188241	1984.281304788	925.513385891491	200.559229858837	1656.38784368852	1406.76770678684	162.357039244078	1995.02981464679	1025.94272077478	189.559229858837	1896.72688287896	1176.79793220581	151.273072285668	1825.77940200884	961.64623943994	151.244642811461	1870.86463917341	1233.39217523958	208.219629842208	1963.47702704448	848.527431875617	165.244642811461	1370.52201765596	1822.7877098664	223.617854311069	2721.75245337428	1096.07710386358	225.803872670298	1918.29007892402	1426.69726984895	147.358540190262	1985.70154369905	980.316847179248	214.200168256718	2132.27857041385	1431.12511039076	135.915063851928	2713.11683562333	933.278683964006	152	2144.8395675394	1096.16714705785	156.74280365756	2043.96279184959
826.413948192486	160.816687837942	1387.24482183764	1354.53757339494	268.970872690875	1979.57846493351	924.132356714162	200.440770141163	1651.76418159954	1401.85399155404	162.265715836247	1984.01095000658	1024.26881218194	189.440770141164	1891.91510789289	1173.04213543328	151.197361077	1816.93562674411	960.163820342403	151.184284051495	1865.71144205332	1230.73685203842	208.017727277756	1956.37937369092	847.144213976697	165.166906544978	1365.2174108411	1820.24500831975	223.389356911376	2712.62378832904	1095.28828395238	225.666306700595	1914.07307419251	1423.20347643894	147.286693485548	1976.54852557163	979.686588704871	214.073857987937	2129.49054582524	1428.14636652526	135.876872874622	2703.98735624049	932.01937602172	152	2140.17828188385	1095.30829849744	156.673389095498	2040.54808289865
824.524140013426	160.744042967079	1381.58636404654	1352.78302085695	268.78634763294	1975.21626956531	922.851919211118	200.326872762363	1647.44215981509	1397.45316396227	162.185067100016	1973.79488403169	1022.68600640733	189.326872762363	1887.43538234972	1169.56922265986	151.130309851513	1808.71435043329	958.646560494773	151.125659599262	1860.53876794448	1228.21484908814	207.826526909755	1949.58148516106	845.668011738269	165.09416589465	1359.83601782342	1817.62962035839	223.17648375893	2703.58769626442	1094.46466498355	225.530356541486	1910.01207879426	1419.79646185667	147.212713525701	1967.77640642544	978.938196762027	213.937966283724	2126.80843150916	1425.10176058694	135.837760862727	2695.51108554541	930.727887679436	152	2135.87928139017	1094.27970188781	156.600474500687	2037.20290493782
822.952565284088	160.661727206268	1376.80124907262	1351.34705439751	268.617934579557	1971.64362247378	921.788321978653	200.227117774103	1643.84817842219	1393.97672059451	162.120934877959	1965.34867772385	1021.36191282399	189.227117774103	1883.73143262268	1166.72027264358	151.077579698651	1801.91209699041	957.273451498831	151.076252475754	1855.81706494352	1226.07161583123	207.66771419198	1943.65857021459	844.22885738463	165.036327190714	1354.78618623421	1815.19787218365	223.004921620676	2695.46449567906	1093.69434650736	225.409800548182	1906.50689019642	1416.81298186808	147.150486427375	1960.23526726596	978.116741413464	213.803698947011	2124.38498020165	1422.21041544596	135.803698947011	2688.27507502094	929.46349535974	152	2132.1601809081	1093.12254514452	156.529299438446	2034.10338783311
821.818648592068	160.576957136592	1373.26958879069	1350.34343416057	268.482102917589	1969.18595519703	921.019450843475	200.149364352165	1641.29763235835	1391.70880363878	162.075130400544	1959.3576590142	1020.41692165044	189.148037129269	1881.13214532278	1164.73501655487	151.040179276815	1797.0898995651	956.168869874207	151.040179276815	1851.90403284575	1224.49368598622	207.55846706543	1939.0538774797	842.96752810541	164.998499053816	1350.45143868177	1813.18820404136	222.894025933847	2688.94566812134	1093.05365003861	225.315470427129	1903.86608713268	1414.52024434028	147.110659425108	1954.58659876826	977.268807069156	213.680252650173	2122.33755578928	1419.66949532848	135.78045807117	2682.71704663928	928.274281304893	152	2129.16743640384	1091.89719295804	156.465876586016	2031.41218106399
821.180094825157	160.499654147392	1371.1974621992	1349.81288285599	268.38945228686	1967.99236885553	920.571209215131	200.09863000576	1639.95339962168	1390.75920920339	162.048606050069	1956.13661906075	1019.91652764853	189.095306976407	1879.82456349292	1163.7282106841	151.017727277756	1794.52061400644	955.402804839138	151.017727277756	1849.03641220418	1223.59156980418	207.51081487988	1936.03218500305	842.016311228468	164.980349573596	1347.14740872348	1811.78889696889	222.852859778064	2684.51118793509	1092.60117726329	225.254839916509	1902.28501088752	1413.08923638663	147.098630005761	1951.22957722613	976.442022663431	213.575220129084	2120.76758739994	1417.63334035957	135.772205242399	2679.10691897177	927.204621629353	152	2127.00213776394	1090.6758897086	156.415253911699	2029.27635033654
821.035213850097	160.440596417877	1370.6197990827	1349.72691478745	268.34618125479	1968.03973690721	920.427554597886	200.078362747173	1639.84086344989	1391.07403541543	162.040179276815	1955.6469328526	1019.87161144007	189.071263196816	1879.84680049942	1163.68728803684	151.005977475148	1794.18105541268	955.002528429198	151.005977475148	1847.3366410558	1223.39133296136	207.529493416848	1934.66118304285	841.480104331863	164.977003826566	1345.08996799231	1811.11826005174	222.88119834835	2682.39297783639	1092.37823783605	225.231223851979	1901.84376903464	1412.58328115301	147.114413228436	1950.28556189037	975.691645704424	213.49535366638	2119.76681970321	1416.20322681203	135.78045807117	2677.53311427553	926.299430306682	152	2125.73593962634	1089.53527263715	156.381977744279	2027.80581285616
821.331572085994	160.409102713265	1371.43460206434	1349.99819567822	268.351375681416	1969.16113693283	920.543519731065	200.088207426049	1640.87873413879	1392.46296835243	162.046700926337	1957.56955462404	1020.24989849815	189.076178006701	1881.11556367592	1164.49414014472	151.001327222897	1795.80409372924	954.967712945167	151.001327222897	1846.84010529925	1223.84079126143	207.611207518114	1934.83351314982	841.419938235696	164.983525476088	1344.384713442	1811.21339700728	222.97044284352	2682.59614206914	1092.40827158055	225.244845051859	1902.53548291799	1412.96826141322	147.154211045379	1951.6418778939	975.074466657835	213.445246670127	2119.41612613887	1415.4221158984	135.803698947011	2677.92786257927	925.603745719679	152	2125.42111905837	1088.54338665646	156.36944462711	2027.06863296055
821.984755649175	160.410857651223	1373.44871064426	1350.51035951492	268.397352910657	1971.10197279822	920.863955657622	200.125585130209	1642.92068412665	1394.65712697062	162.062484149013	1961.4100527086	1020.99430083704	189.108640900976	1883.47695128436	1165.96513497148	151	1798.97896361821	955.285722992231	151	1847.52963381202	1224.83537218439	207.745450458463	1936.32635124678	841.850392276275	164.994227672539	1345.03087933685	1812.041607447	223.105151655283	2684.94478094321	1092.69913607935	225.291170014512	1904.28640295201	1414.1383218452	147.20894006361	1955.0094770503	974.646293647927	213.427807442678	2119.77931446684	1415.28596036148	135.837760862727	2680.10370066533	925.162024300256	152	2126.0864510926	1087.75737808742	156.379351578382	2027.08574375685
822.90248887218	160.446480417425	1376.42449909318	1351.14621275957	268.471648913477	1973.56722200683	921.339996915617	200.185067100016	1645.78382834742	1397.36741023916	162.082403674188	1966.59844143551	1022.03270306969	189.165960847987	1886.73339919912	1167.88534543739	151	1803.22694660265	955.930541512287	151	1849.33031881553	1226.23499309742	207.916645066599	1938.84567858624	842.732786927723	165.007099550358	1346.92812892569	1813.50174030567	223.267295151034	2689.13036803364	1093.23905008739	225.36479437486	1906.97475953717	1415.93300016792	147.269207781713	1959.9873388534	974.448318473881	213.442351355835	2120.87686113185	1415.74621445899	135.876872874622	2683.77493057119	925.005206758375	152	2127.71385939355	1087.21394508964	156.411360911434	2027.82750050729
823.996978475447	160.511250289457	1380.11869254714	1351.81298626347	268.55790263594	1976.27899092198	921.934756985085	200.259738361099	1649.27126709716	1400.3320826302	162.101082211157	1972.58276437487	1023.28768795477	189.244469088175	1890.66008231623	1170.04513184183	151	1808.0692047301	956.860732079847	151	1852.09313065394	1227.89115803443	208.107059686304	1942.06594855051	843.987367175362	165.023779221956	1349.8932004124	1815.4439077298	223.438149753901	2694.75566940697	1093.99401880129	225.457082282644	1910.43600307431	1418.16207557055	147.327052047871	1966.10886778139	974.495700983374	213.486405702465	2122.66101880388	1416.71710178555	135.913736629031	2688.57636522439	925.138627901961	152	2130.20746365666	1086.92557119371	156.461732534895	2029.206471779
825.193420624747	160.596086106298	1384.29513137125	1352.4485296631	268.637598213073	1978.99723024951	922.619798331938	200.341966412116	1653.17498539586	1403.33511614105	162.113897378801	1978.8657614647	1024.67922793326	189.339687930007	1895.03083642458	1172.25914207892	151	1813.08506290906	958.00884226554	151.001327222897	1855.60182498784	1229.65998695584	208.297383264146	1945.67298825522	845.501977265817	165.045373703441	1353.68093345417	1817.68810339758	223.601949254426	2701.37415209602	1094.91007568362	225.559317772215	1914.46831781988	1420.62147909136	147.374250672198	1972.88326758092	974.772932246692	213.552930512456	2125.01075508237	1418.08135842373	135.942876493951	2694.08824894812	925.534711780894	152	2133.38502768299	1086.88000678459	156.523173815352	2031.08571122626
826.430884890826	160.689527292496	1388.73568332538	1353.02617843804	268.693306720789	1981.53988144294	923.373244972466	200.422618623116	1657.28452232734	1406.21912300527	162.118459717673	1985.03135971502	1026.12328369321	189.445332480036	1899.60701031905	1174.3738615697	151	1817.91960533065	959.281246730672	151.004650252251	1859.56362195502	1231.41258179613	208.471022432787	1949.37198124495	847.146632430758	165.072906728724	1357.99709482784	1820.03934125543	223.745779974587	2708.50015388853	1095.91459137726	225.66163929289	1918.82747680284	1423.1096698377	147.406346036355	1979.8072547857	975.230979597351	213.633463810458	2127.7366762085	1419.69228299002	135.959820723185	2699.85677907667	926.129894952459	152	2136.98378838081	1087.03594186497	156.586609223578	2033.28752354926
827.658410040286	160.780186923941	1393.24306194305	1353.54411813244	268.713226245964	1983.78719265697	924.170348846468	200.493399962794	1661.39750742252	1408.87522196773	162.113897378801	1990.7525554449	1027.54031683328	189.554667519964	1904.15358132726	1176.27623072068	151	1822.29868424064	960.573300117428	151.011749802608	1863.64976029348	1233.04689952266	208.613893460169	1952.9057718619	848.78823754114	165.106182896145	1362.53289712757	1822.3059048042	223.860913603993	2715.65542257216	1096.92565069399	225.755530911825	1923.25338807296	1425.43573128397	147.420943666806	1986.41310899522	975.795968335372	213.718500941078	2130.61496675291	1421.38537434847	135.963143752539	2705.43660856654	926.833630393873	152	2140.69989336962	1087.32890985814	156.640850484503	2035.61379855216
828.837026379526	160.857940345879	1397.65091351988	1354.02178138491	268.691979497892	1985.6853709322	924.988408199627	200.549219101564	1665.34171075492	1411.24260325699	162.101082211157	1995.79876189268	1028.85799061147	189.658984847096	1908.45682404508	1177.89084094694	151	1826.0354191607	961.78031139165	151.023779221956	1867.54605969559	1234.48880943227	208.714975671326	1956.07371388502	850.305005416501	165.141805662347	1366.99306625856	1824.31691565282	223.94461350146	2722.40772096434	1097.86108417883	225.83536637491	1927.49777686334	1427.43742085992	147.41794217842	1992.30439431276	976.385085036578	213.799315893647	2133.43302154011	1422.99834987896	135.954626296559	2710.44606102222	927.546176236462	152	2144.24475265067	1087.68312539575	156.675833434808	2037.88128425148
829.933073962787	160.917770049098	1401.82531251539	1354.48390125183	268.631620737925	1987.23168798711	925.802354347463	200.587405341269	1668.98572796657	1413.28849223577	162.082403674188	2000.03286372768	1030.01588032874	189.749553436678	1912.33293294959	1179.17621645197	150.998672777103	1829.02305804031	962.815187328929	151.04072345119	1870.99100381983	1235.69196412181	208.768405696933	1958.73290698175	851.595912192907	165.175054304917	1371.12339696203	1825.9366702326	223.997091562432	2728.40573229062	1098.64865283796	225.896009351275	1931.34670241846	1428.99032821623	147.399263641452	1997.1891689858	976.918771877152	213.86836292559	2136.01065005841	1424.38782362386	135.937515850987	2714.59927049735	928.174112729207	152	2147.37887128994	1088.01872910581	156.683295825574	2039.93749487131
830.921508850019	160.958493500288	1405.68258458191	1354.95436144309	268.542829803978	1988.48087045444	926.58720641775	200.609422730641	1672.26007983803	1415.00592761739	162.062484149013	2003.42210845258	1030.97292213091	189.818966320051	1915.66066413461	1180.1231815966	150.995349747749	1831.24905952998	963.620198623417	151.061156926116	1873.82770716207	1236.63901872502	208.77438317208	1960.82215906024	852.59552757751	165.200863391861	1374.74005150157	1827.08896115823	224.023952945243	2733.42461067665	1099.24291435959	225.936899018804	1934.65334423245	1430.02963390516	147.368203214122	2000.9159292133	977.338914808467	213.922420301349	2138.23603996597	1425.45767075122	135.917596325812	2717.75318346758	928.651374566912	152	2149.95656951685	1088.27457902378	156.660579268879	2041.69036700903
831.783794918131	160.980945499347	1409.17953071608	1355.44908272205	268.439442918267	1989.51567457894	927.32210083484	200.619059562056	1675.14690028203	1416.40344792694	162.045373703441	2006.01947609406	1031.70544381296	189.860480326711	1918.3857816347	1180.74373143739	150.988250197392	1832.77626301074	964.167380048434	151.082403674188	1876.01128078261	1237.32852076452	208.737353201333	1962.355252826	853.273900948308	165.214979589957	1377.74683265015	1827.75207281716	224.031400229013	2737.38766651329	1099.62146486148	225.958493500288	1937.35587876676	1430.54527020938	147.328609769871	2003.48476979154	977.613228082342	213.959820723185	2140.06335686468	1426.16660995733	135.898917788843	2719.90612761136	928.945462138985	152	2151.92750687055	1088.41201181459	156.608624564491	2043.10847804155
832.513340653829	160.989372272602	1412.31824477079	1355.97611285693	268.337295342074	1990.44488611715	927.992361041693	200.621624298391	1677.67931473614	1417.51149312219	162.035529024564	2007.96349896195	1032.20684488241	189.871069122761	1920.51827457412	1181.06999685819	150.974893555147	1833.72517677266	964.459519183035	151.101082211157	1877.60028248628	1237.7743867835	208.667149762489	1963.40801328849	853.639587798434	165.214979589957	1380.13469046733	1827.96397853471	224.027646425685	2740.35671934137	1099.79198407469	225.963143752539	1939.46987585021	1430.58376488789	147.284132515354	2005.0257013207	977.742029812795	213.982272722244	2141.50239057116	1426.53983332901	135.8861026212	2721.18211860216	929.064496804118	152	2153.32402966037	1088.42638168521	156.534123413984	2044.21466760138
833.113691406473	160.986922974495	1415.11992043702	1356.53750296243	268.250896996059	1991.36505497391	928.589928521002	200.622138248142	1679.90608052246	1418.37777627548	162.035529024564	2009.43557360719	1032.48648395056	189.851962870731	1922.13068285406	1181.14813258244	150.954626296559	1834.25824934075	964.52212464721	151.113897378801	1878.73630663247	1238.00149360556	208.578358828542	1964.10855349896	853.731470143108	165.200863391862	1381.96898967661	1827.80622603207	224.019128969705	2742.50723814017	1099.78346573284	225.954626296559	1941.07384929821	1430.23495330956	147.237719639323	2005.7726226092	977.74938342057	213.994022524852	2142.60745992366	1426.65586962141	135.881540282327	2721.8045326145	929.049153931623	152	2154.24416755118	1088.34260794084	156.448149308261	2045.07758123698
833.602261246225	160.976220778044	1417.61197686885	1357.13814156413	268.190087803355	1992.3491960261	929.118203776389	200.623302729469	1681.87510672704	1419.07296003165	162.045373703441	2010.63740439795	1032.56602358628	189.807833349626	1923.33153577659	1181.03273554148	150.927093271276	1834.54204440816	964.396900897231	151.118459717673	1879.6011402004	1238.04167038212	208.486143844604	1964.60480937196	853.613422959052	165.175054304917	1383.37073685462	1827.3893564446	224.010422579711	2744.08572452692	1099.6404272038	225.937515850987	1942.28436486594	1429.61406673748	147.192781582672	2006.01037347788	977.679480235279	213.998672777103	2143.45298006706	1426.63166766255	135.8861026212	2722.04555175908	928.964001132171	152	2154.82057252964	1088.21009999407	156.361618738405	2045.79055999367
834.009571680555	160.957949325913	1419.81954288339	1357.78945990935	268.161114154774	1993.43668796269	929.589745736635	200.6263642601	1683.61812024108	1419.69315647474	162.062484149013	2011.76406150371	1032.4777985601	189.747361189258	1924.24463795337	1180.78785238121	150.893817103856	1834.72812893411	964.134572559304	151.113897378801	1880.37721806158	1237.93851792252	208.405756966235	1965.04410099156	853.361656428352	165.141805662347	1384.48753797869	1826.83136012772	224.004650252251	2745.35854452254	1099.4118158481	225.917596325812	1943.22641000159	1428.84345637033	147.153760612642	2006.02777784198	977.586405709737	214	2144.11264496371	1426.60272010721	135.898917788843	2722.16838624893	928.886256489278	152	2155.18838080057	1088.09338132535	156.286947477323	2046.44507027637
834.376929176899	160.934192821633	1421.76128730111	1358.51167692927	268.165416673612	1994.63269761551	930.026370668179	200.631449052466	1685.14764576431	1420.34382061974	162.083730897085	2012.98039165171	1032.26565466697	189.68181280984	1924.99526425045	1180.48848460449	150.858194337653	1834.94947569409	963.791182277169	151.101082211157	1881.21784804081	1237.74856912939	208.349700725106	1965.56034649109	853.05519090626	165.106182896145	1385.46492066643	1826.24191214479	224.001327222897	2746.55802496782	1099.14442067971	225.898917788843	1944.00763484998	1428.03727088889	147.125237396797	2006.06606442887	977.519206889181	214	2144.64207533529	1426.6887614007	135.917596325812	2722.38070028304	928.885133945859	152	2155.45999884122	1088.05301794249	156.231768026354	2047.10891252432
834.741431448796	160.905846523204	1423.44403187035	1359.31993046654	268.201039439814	1995.90587036958	930.447926867177	200.639334420692	1686.45873225867	1421.11301321006	162.105732463407	2014.38368959736	1031.97919959838	189.624082303222	1925.69185772945	1180.20727055238	150.824945695083	1835.31062271186	963.423339620438	151.082403674188	1882.23287264281	1237.53510569362	208.326699039076	1966.25736081311	852.765193571209	165.072906728724	1386.43536932579	1825.70896981021	224	2747.87303843433	1098.87470816268	225.8861026212	1944.71687025985	1427.29136255144	147.113086005539	2006.31599794574	977.517867496666	214	2145.08850047734	1426.98202057393	135.938843073884	2722.82569497128	929.015960684502	152	2155.72925022667	1088.13763175944	156.199712216917	2047.82755354774
835.133629973577	160.875138566887	1424.8831889131	1360.21953272507	268.263261730966	1997.2124312215	930.873395997157	200.650929230352	1687.55590458999	1422.05705945779	162.125647181409	2016.01571138485	1031.66987891455	189.584157018181	1926.41439519432	1180.00726999381	150.799136608139	1835.87851911413	963.083181078458	151.061156926116	1883.47855265833	1237.35924199432	208.33951420672	1967.20035106259	852.547875096053	165.045373703441	1387.49827395913	1825.29520149292	224.001327222897	2749.4253911111	1098.63073251425	225.881540282327	1945.41667725415	1426.6761487865	147.122953402092	2006.90600576206	977.607477527602	214	2145.48488461836	1427.52937680184	135.95927654881	2723.57110383488	929.3079918293	152	2156.0618829165	1088.37235325705	156.190932903077	2048.61197164127
835.567674232274	160.84537917001	1426.10719581143	1361.19848563477	268.345577491776	1998.50704080625	931.313990119241	200.66708771129	1688.46148514157	1423.18718397571	162.142238939629	2017.86014010364	1031.38972100035	189.570040820086	1927.22379672396	1179.93729083563	150.785020410043	1836.69459777571	962.819386016086	151.04072345119	1884.9760112107	1237.27635432278	208.385756768591	1968.42216109075	852.442056108417	165.025106444853	1388.72848165729	1825.03636165179	224.004650252251	2751.28833013649	1098.43030628501	225.8861026212	1946.15933907657	1426.23593500474	147.156743519263	2007.91620027545	977.795392807996	214.001327222897	2145.87075477045	1428.33536484652	135.976220778044	2724.64857214155	929.766633817665	152	2156.51506880382	1088.75687296588	156.200689668575	2049.46387294449
836.044014963482	160.820383356211	1427.15934593986	1362.22715107759	268.440770141163	1999.75410526445	931.77434017622	200.690085922551	1689.22401365037	1424.47502576312	162.15462082999	2019.85997930283	1031.17993000876	189.584157018181	1928.15259892361	1180.02038793901	150.78634763294	1837.7635310575	962.667879722864	151.025106444853	1886.7094196425	1237.32380104678	208.458497418919	1969.91767101199	852.471112879611	165.011749802608	1390.16775223069	1824.94960819231	224.011749802608	2753.47810843716	1098.28668103887	225.898917788843	1946.9803954292	1425.99093707981	147.212433908961	2009.36835127499	978.076667397854	214.004650252251	2146.29994113895	1429.36832891801	135.988250197392	2726.07815166684	930.375592543148	152	2157.14953959079	1089.27091059319	156.221755231254	2050.390886873
836.553444462207	160.802371724114	1428.10710952987	1363.26651020263	268.540525129423	2000.94480496861	932.254272531838	200.719614754292	1689.91689649296	1425.86849295291	162.162239137273	2021.95719918065	1031.06748047596	189.624082303222	1929.21153656356	1180.25284601976	150.803786860389	1839.0586046522	962.641839301377	151.016400054859	1888.62873701624	1237.51468953559	208.547829827468	1971.65325308405	852.645442447602	165.004650252251	1391.8345008386	1825.03838431223	224.023779221956	2755.96624553648	1098.20776415435	225.917596325812	1947.90103356206	1425.94237659361	147.284822088276	2011.23553731861	978.433155263808	214.011749802608	2146.82762473481	1430.56940422841	135.995349747749	2727.87037343975	931.100592746338	152	2158.01786718305	1089.88029166564	156.247297257255	2051.40835480113
837.079583767103	160.793185325436	1429.02790367679	1364.27421379216	268.636983280774	2002.09939384475	932.746559806306	200.755263712939	1690.62151178115	1427.29944218444	162.164807348377	2024.10339277732	1031.0609379031	189.683140032737	1930.39907180413	1180.60999253478	150.836695497691	1840.5354395635	962.728757004201	151.017727277756	1890.65807458847	1237.84219036365	208.642960755922	1973.58059556165	852.969486750114	165.002654445794	1393.72656714668	1825.30040637687	224.04072345119	2758.68361597249	1098.19589398895	225.938843073884	1948.9207369659	1426.07645128752	147.364540383085	2013.43471156653	978.83978911467	214.023779221956	2147.49597499345	1431.86975673809	135.998672777103	2730.01616363369	931.900523838321	152	2159.15185374448	1090.54788771035	156.270539811784	2052.53139918075
837.605876426685	160.791949144403	1429.99477720691	1365.21474157284	268.721207138248	2003.25434733735	933.240760180592	200.793014509439	1691.40847960003	1428.69755731922	162.162239137273	2026.2608910628	1031.14999639508	189.752011441509	1931.703613418	1181.04869727143	150.88197355961	1842.13871804071	962.891504988387	151.029756697104	1892.70607690983	1238.27897216806	208.734284163753	1975.64471225632	853.445272659035	165.004650252251	1395.82957670669	1825.73711982862	224.061156926116	2761.53743564491	1098.25419475959	225.95927654881	1950.02284195475	1426.37881170171	147.439969937187	2015.8455365725	979.269783518431	214.04072345119	2148.32461018311	1433.20177661991	136	2732.47457226645	932.733110475109	152	2160.55364368756	1091.23948264695	156.289213541578	2053.7646565819
838.115286652897	160.796604134255	1431.06178608605	1366.06327038332	268.786503425777	2004.45161318069	933.725084951313	200.828009925489	1692.32591866545	1429.99693391099	162.155948052887	2028.39409793175	1031.30966792294	189.820910375131	1933.09958334789	1181.51397541732	150.934540555045	1843.79773213856	963.081314388189	151.052473253798	1894.67531913397	1238.78436563968	208.813605677087	1977.78295960065	854.069439371994	165.011749802608	1398.11659337586	1826.34225726191	224.082403674188	2764.42528682273	1098.37675046999	225.976220778044	1951.17656319305	1426.82963166051	147.501564878187	2018.3339455576	979.699485615644	214.061156926116	2149.30059649533	1434.51095904805	136	2735.15942111756	933.562312275099	152	2162.18566760962	1091.93023009385	156.302837244767	2055.08271104382
838.594339854263	160.80465571882	1432.25342270385	1366.80712660045	268.82791909114	2005.72421705486	934.189298323129	200.856068948607	1693.39578155681	1431.14122705401	162.14688919188	2030.46764253105	1031.51091018577	189.881719567835	1934.56338965008	1181.95229528625	150.988250197392	1845.44173987521	963.255574001725	151.084936148072	1896.50200852066	1239.31432141274	208.875742092688	1979.93755806378	854.828532651557	165.025106444853	1400.55319490332	1827.09920446326	224.101082211157	2767.25820813905	1098.55274398604	225.988250197392	1952.34954186229	1427.40152585839	147.540704414931	2020.78532034123	980.114398155651	214.082403674188	2150.38812297273	1435.76433293759	136	2737.96007622761	934.36588422183	152	2163.98000003579	1092.6047363714	156.314587047375	2056.43342206256
839.032040736651	160.813981640771	1433.55692573281	1367.44330589745	268.844583703634	2007.07403032573	934.62717007114	200.874340400738	1694.60669048558	1432.09287596718	162.137396984017	2032.43553207218	1031.72829784043	189.929519851706	1936.06085085482	1182.31939469183	151.037029970748	1846.99010091394	963.392897973578	151.123127125378	1898.15964434257	1239.82919844141	208.917770049098	1982.04683817375	855.693792388327	165.045373703441	1403.09269872455	1827.96867601261	224.1138973788	2769.95867569348	1098.76344104619	225.995349747749	1953.51095569738	1428.05445752645	147.553086305293	2023.10737129051	980.507536840738	214.101082211157	2151.53260377455	1436.94424376194	136	2740.75967372029	935.130115873111	152	2165.84869176811	1093.2522435842	156.328065595496	2057.74450479556
839.425127538686	160.823442849015	1434.93584782527	1367.98151305961	268.840016627161	2008.48297420059	935.037252587748	200.882067301247	1695.92666656842	1432.84922699081	162.129511685363	2034.26831417953	1031.94941715002	189.963143752539	1937.55885780813	1182.5948877811	151.075975766304	1848.37090588365	963.502127842696	151.162239137273	1899.67018024378	1240.30543768823	208.939364530583	1984.0553393435	856.618718684276	165.072906728724	1405.67884552502	1828.8830001565	224.118459717673	2772.46851640599	1098.98261425224	225.998672777103	1954.63832444588	1428.72458853656	147.539484056948	2025.23677436811	980.875560128158	214.113897378801	2152.67222555925	1438.04445668016	136	2743.45973503188	935.848076350943	152	2167.69722901794	1093.86424034448	156.348119510435	2058.93971863047
839.774713361221	160.833110610476	1436.33808162815	1368.43377192232	268.821360807868	2009.91335236475	935.419291052626	200.882517733985	1697.30566179933	1433.43423464826	162.124454348275	2035.96550282804	1032.17636627224	189.983599945141	1939.01493563026	1182.78916629146	151.102147576192	1849.52402097029	963.61500030061	151.196301052989	1901.07849596009	1240.7384443629	208.942876493951	1985.91047406275	857.54516707893	165.106182896145	1408.24009224172	1829.75813225986	224.1138973788	2774.73037916203	1099.17939370359	225.998672777103	1955.70637135273	1429.33624395226	147.503695074407	2027.11632053991	981.212858241915	214.118459717673	2153.73945899634	1439.05855681496	136	2745.98468363611	936.510427647201	152	2169.42985171734	1094.4286818573	156.376279885871	2059.95326283902
840.076399961315	160.844051947113	1437.68785807803	1368.80250494073	268.797721471864	2011.29897502783	935.76181291394	200.880125146052	1698.66287776094	1433.87922717936	162.123641075129	2037.53565382375	1032.41851411305	189.994022524852	1940.37338022686	1182.93828082931	151.113809465422	1850.4074815328	963.772597891524	151.21954192883	1902.42498854568	1241.13962092007	208.932865598736	1987.56408660405	858.408199064714	165.141805662347	1410.69116992002	1830.50276264451	224.101082211157	2776.67496638918	1099.32159375977	225.995349747749	1956.67913600029	1429.80269350017	147.454798425881	2028.67412166376	981.507840988204	214.113897378801	2154.66316643125	1439.97361069914	136	2748.2774057613	937.103317769267	152	2170.9553474315	1094.92940950185	156.411811610209	2060.73640593445
840.314362230755	160.857761060371	1438.88572247198	1369.07036709642	268.777803625376	2012.54599072052	936.03755447619	200.878885836533	1699.8871223878	1434.19951983381	162.127777377629	2038.97073302154	1032.68308335495	189.998672777103	1941.56158299322	1183.08566518347	151.112570155904	1850.99525331963	964.006933176224	151.227794757601	1903.72136853078	1241.5244482041	208.914941880018	1988.97100606312	859.146022990649	165.175054304917	1412.93573878295	1831.03603473444	224.081076451291	2778.22609346005	1099.38264311374	225.986922974495	1957.50965080039	1430.04876198871	147.402065214106	2029.8255957969	981.73818356124	214.101082211157	2155.36981267167	1440.76336804438	136	2750.2858825009	937.603716417866	152	2172.18638100026	1095.34495740831	156.451384424236	2061.25530112535
840.453318266519	160.873025595694	1439.78187231323	1369.19135202454	268.764900544355	2013.5052181841	936.20053713609	200.881452368949	1700.82074897103	1434.3693268826	162.136611235721	2040.18524881804	1032.96384081336	190	1942.48655744512	1183.25764066979	151.101082211157	1851.26364817856	964.329313593665	151.21954192883	1904.93629263921	1241.89859610869	208.892940313696	1990.0824757096	859.709699820306	165.202190614758	1414.87127310761	1831.30782261089	224.056506673866	2779.29987975539	1099.34605507259	225.971570525793	1958.13912804461	1430.02763565724	147.354672848591	2030.47890782695	981.878884936934	214.082403674188	2155.7873732878	1441.39708569409	135.998672777103	2751.94886752364	937.987600958278	152	2173.04160687903	1095.655360046	156.4875331187	2061.48387428
840.439037415093	160.888290061445	1440.18546741739	1369.09085218451	268.756753318267	2013.98141922958	936.189988832592	200.885840763338	1701.27520035839	1434.31804505077	162.148099180468	2041.00896418648	1033.23294087131	189.998672777103	1943.02797831137	1183.44484117266	151.081076451291	1851.15855331687	964.720082422688	151.196301052989	1905.98396035544	1242.24343792007	208.868375343444	1990.8305132616	860.067481787121	165.219629842208	1416.38889377622	1831.30024564829	224.027646425685	2779.80640726497	1099.20767742405	225.946199523305	1958.49399516591	1429.7282072105	147.318441181935	2030.54579145086	981.906935773821	214.059829703219	2155.85292119143	1441.84575621206	135.994022524852	2753.1979328075	938.233853431929	152	2173.45290803554	1095.8459997914	156.512078499762	2061.40167240552
840.209767346926	160.899869048056	1439.88040177663	1368.68198432036	268.744465169544	2013.7473906837	935.943670591247	200.889166851605	1701.05077132105	1433.94424138699	162.159183168863	2041.1952178669	1033.44379435486	189.994022524852	1943.06411558472	1183.59837647262	151.055179450969	1850.60836358123	965.132077347878	151.162239137273	1906.74570512562	1242.51742583688	208.840033782615	1991.14262537673	860.206213821128	165.226729392565	1417.38540790429	1831.02956868719	223.994022524852	2779.65857448703	1098.97574316589	225.90908637678	1958.49439632707	1429.17583923564	147.294689484828	2029.95534681243	981.80633321972	214.034745976042	2155.51803994805	1442.08882352269	135.983599945141	2753.95832367014	938.33124404258	152	2173.36864707877	1095.91244164681	156.517039298798	2060.99190996795
839.712194770157	160.90331404932	1438.66795605357	1367.88899453129	268.714024412114	2012.59112690475	935.414967032811	200.885042597189	1699.9759937988	1433.14618335571	162.163304502309	2040.47343255128	1033.53782761157	189.983599945141	1942.49133126285	1183.63617608261	151.022996173434	1849.53418486424	965.496367928285	151.123127125378	1907.09108039251	1242.65887521781	208.803872670298	1990.95467654152	860.136316902237	165.224642613818	1417.78073725099	1830.54369103851	223.953299073663	2778.7968239276	1098.66693722227	225.859145596866	1958.06868779996	1428.43351056325	147.281499058922	2028.67799331975	981.571931802577	214.007379167097	2154.7559805776	1442.11614618789	135.964470975436	2754.15838445528	938.279130940048	152	2172.76288349462	1095.86031817488	156.4970056678	2060.24481175738
838.919414211132	160.894773875664	1436.4251772973	1366.67100135792	268.651256046702	2010.37374714363	934.587829145319	200.86836292559	1697.95821870157	1431.85469629667	162.155056411138	2038.62745691567	1033.45984223444	189.963143752539	1941.25635902084	1183.46930585562	150.982272722244	1847.88271915583	965.741383017587	151.084936148072	1906.91264191076	1242.60719941849	208.755530911825	1990.23659733384	859.88682032649	165.215777756107	1417.53829690383	1829.91279591758	223.901986826423	2777.21467425686	1098.30462471121	225.796254363015	1957.17532733316	1427.58745126178	147.273858033964	2026.74602703477	981.210833042599	213.976220778044	2153.56885320203	1441.93461046923	135.935497326854	2753.74770487894	938.090022185008	152	2171.64467373818	1095.70673773899	156.453331317033	2059.16810016279
837.847143221284	160.874340400738	1433.14848307279	1365.04806498204	268.545886423703	2007.07824560424	933.491363586682	200.83536637491	1695.02145822159	1430.05936644373	162.131012631547	2035.55560109422	1033.17572208815	189.929519851706	1939.38155628053	1183.02880692939	150.929519851706	1845.65996789078	965.810026212907	151.052473253798	1906.16212105436	1242.32089567559	208.691805774605	1989.01493742953	859.505392583088	165.202962588463	1416.68334932704	1829.22153783343	223.838020820704	2774.98438301246	1097.916373406	225.721468996109	1955.82536654927	1426.73623707249	147.266242855167	2024.26932649273	980.737360791211	213.940147579105	2152.00632088028	1441.56077327202	135.898119622694	2752.73756833804	937.784375326787	152	2170.08021826777	1095.47341073589	156.391532003341	2057.80650447418
836.553138989459	160.844689597087	1428.97124971993	1363.10081390601	268.394863432633	2002.82238038674	932.198566643671	200.784504560407	1691.31969195428	1427.8240563323	162.090118156844	2031.29902599113	1032.68251119285	189.880392344938	1936.98660734877	1182.2818244586	150.861263375233	1842.95586062453	965.682047973391	151.028429474207	1904.89181226094	1241.79055691205	208.611970311521	1987.38809684695	859.053585414463	165.188586570333	1415.32552394088	1828.56117250253	223.761508386973	2772.28836638267	1097.53373723558	225.637071194152	1954.11225442325	1425.98016431067	147.252901202454	2021.4529390616	980.178233301433	213.899446845591	2150.18803143387	1441.02602941853	135.856439399695	2751.24548128328	937.394280156311	152	2168.21865250328	1095.1876053677	156.323008258408	2056.2657015141
835.13866025583	160.811863862404	1424.17208444447	1360.96581195652	268.203927622267	1997.86976745565	930.823901385053	200.718145966756	1687.14504089988	1425.28902435667	162.036056043485	2026.07769638333	1032.0205986981	189.814932899984	1934.2720304284	1181.25008349724	150.775536671691	1839.92635874566	965.386985061011	151.013077025505	1903.25357187798	1241.05081563779	208.518506407647	1985.51134676889	858.599420497308	165.173988939881	1413.65348444632	1828.01676260066	223.678039347749	2769.41024620211	1097.19411746745	225.54774191409	1952.2158866114	1425.40324127026	147.231291731438	2018.58441943684	979.570068748916	213.856439399695	2148.30315716291	1440.37585771223	135.816514114655	2749.5093403271	936.960624055648	152	2166.28886556822	1094.87980910308	156.261148759773	2054.71544314235
833.728954250004	160.783693187146	1419.13792501926	1358.81072961321	267.986922974495	1992.59321677001	929.503520676736	200.640394223506	1682.88881543679	1422.65456857284	161.974110240587	2020.27060122439	1031.27206941302	189.73561138665	1931.50297258372	1180.01314240438	150.674454460534	1836.78256740083	965.005554231649	151.005977475148	1901.48891505471	1240.18196716306	208.416990919207	1983.57935003133	858.211369005916	165.160598305138	1411.91884005764	1827.65697924267	223.596174019676	2766.70055285153	1096.93662176394	225.459562783955	1950.3836531993	1425.06219208416	147.202278528136	2015.99225152944	978.954370238133	213.816514114655	2146.59369312404	1439.66481161412	135.785020410043	2747.87555121777	936.528359319694	152	2164.57941103992	1094.57962272285	156.217106878888	2053.38113254912
832.45806819059	160.767642903526	1414.31124445596	1356.80752939023	267.762992651276	1987.42151838602	928.375343262274	200.559491716698	1678.98671025368	1420.15482445824	161.911880708525	2014.37221789621	1030.54526303024	189.647611008173	1928.97335734027	1178.69491423795	150.565207333984	1833.75655564424	964.651719238561	151.005977475148	1899.88704204889	1239.29439678646	208.315122959755	1981.8007009063	857.953928423409	165.148216414777	1410.39678059628	1827.53309067305	223.526235208041	2764.51099944306	1096.80093569819	225.379328860706	1948.88418078691	1424.98526327932	147.16821661242	2013.97906153614	978.378277291063	213.785020410043	2145.31364158209	1438.95810016864	135.767642903526	2746.73152959168	936.145903039135	152	2163.38921153292	1094.32028114981	156.198022153612	2052.50664507199
831.444020129968	160.767642903526	1410.1279795753	1355.1022775356	267.551336090672	1982.7856476271	927.554605086023	200.482014783014	1675.85287596447	1418.01316369853	161.854434972104	2008.92337772212	1029.96034209378	189.559579630076	1926.95486763273	1177.4457193732	150.457170196022	1831.06085553228	964.448396265199	151.013077025505	1898.71695926591	1238.51521868897	208.221140298956	1980.36048229671	857.88206552104	165.137396984017	1409.34222058907	1827.6767666235	223.477097331877	2763.1235533788	1096.82043968949	225.315387251352	1947.94939399052	1425.17568018438	147.134876927986	2012.76156719231	977.884448592122	213.767642903526	2144.67104648425	1438.32148623856	135.767642903526	2746.40817246027	935.855492098995	152	2162.95793197996	1094.13372923798	156.20535707628	2052.29770257143
830.769073984585	160.785020410043	1406.94090800527	1353.79436884562	267.369177428224	1979.04057943955	927.116307790649	200.415402059646	1673.80262517894	1416.39539853154	161.806259917205	2004.40243970687	1029.62194842813	189.482276640875	1925.66480505501	1176.40884638385	150.363729009824	1828.85863680674	964.498836024474	151.028429474207	1898.18614127322	1237.96170839346	208.142059654121	1979.40281968246	858.034659476586	165.129511685363	1408.94087337109	1828.0972162302	223.452532361625	2762.69248063341	1097.01278234827	225.274225785278	1947.72063758451	1425.61171211824	147.108715370028	2012.42519305587	977.504295555023	213.767642903526	2144.77062069026	1437.81265238405	135.785020410043	2747.07607454105	935.687793858222	152	2163.39900867141	1094.0484525819	156.232719285566	2052.85975312
830.464506772804	160.816514114655	1404.95736825841	1352.91949218351	267.224289605023	1976.40433539206	927.0823010705	200.363467151963	1672.99613063798	1415.37101923424	161.767381045665	2001.1213425621	1029.59893066191	189.426480219781	1925.22403593437	1175.68632562839	150.2962706995	1827.22883437275	964.863092907286	151.052473253798	1898.39662360059	1237.71420583601	208.082229950902	1979.00078205019	858.42875661217	165.124454348275	1409.28452949308	1828.77821350433	223.449999887741	2763.21784758593	1097.37668178133	225.260462058196	1948.22356568087	1426.25232887135	147.093196704988	2012.90785326487	977.256126966999	213.785020410043	2145.59392393451	1437.47267041136	135.816514114655	2748.69999504476	935.6561887746	152	2164.67536652324	1094.08388745248	156.27053500461	2054.168701438
830.507307067395	160.855112176799	1404.2092587492	1352.45043822524	267.117758975466	1974.92495754834	927.42258367769	200.326872762363	1673.41622239699	1414.90086098054	161.736564545747	1999.15540506242	1029.90622714192	189.400671132836	1925.64239143606	1175.30925696945	150.261667309183	1826.15570079139	965.544179878399	151.084936148072	1899.33830684241	1237.79479532272	208.041506499712	1979.14818827473	859.052039113591	165.123641075129	1410.35069567522	1829.67248473921	223.462530838987	2764.54467014869	1097.88327089351	225.275980723236	1949.36155752245	1427.03868533608	147.09091362322	2014.01727217391	977.140075162402	213.816514114655	2146.98914826155	1437.31393028271	135.855112176799	2751.01808349905	935.75315724931	152	2166.58831026106	1094.24507342137	156.306595855269	2056.05417602586
830.827216410816	160.892142147546	1404.5565295225	1352.30544323122	267.041506499712	1974.48033134933	928.060197950153	200.303093540407	1674.880452989	1414.84879397949	161.708656262201	1998.33932041618	1030.50229332518	189.409102713265	1926.82272778044	1175.22821466676	150.262646798667	1825.53125239301	966.488695642863	151.124454348275	1900.90393524646	1238.15995338311	208.017727277756	1979.76245896766	859.863032048306	165.129104600526	1412.01582952917	1830.70288625229	223.478943963015	2766.40581015409	1098.481145721	225.318189090045	1950.9448074279	1427.89608608908	147.100130951944	2015.48192955695	977.141428747169	213.856439399695	2148.70931162802	1437.32217825951	135.892142147546	2753.60537715129	935.953359467947	152	2168.82529902312	1094.5191515584	156.330204191655	2058.2321015928
831.320686550345	160.919097271995	1405.72475646339	1352.36563805132	266.982198253191	1974.81060873515	928.888490309297	200.287214676209	1677.08269483439	1415.01676671466	161.677777489888	1998.31531232981	1031.298160452	189.449455713366	1928.57477699214	1175.32799780077	150.294145310454	1825.17338093671	967.599287654557	151.166889389524	1902.91440042163	1238.70811143832	208.004650252251	1980.69296193848	860.787645604479	165.141261487972	1414.07722458497	1831.75425817602	223.487515963246	2768.46323757952	1099.09869306436	225.380818466034	1952.72729855634	1428.72651314742	147.117482266016	2016.9927990027	977.236679870428	213.898119622694	2150.47040035673	1437.45820830269	135.917770049098	2755.97741699026	936.217236988237	152	2171.03079884524	1094.87530014943	156.33343930763	2060.36948239775
831.876962299047	160.928941950872	1407.38178952544	1352.50571318895	266.925074747143	1975.59776372251	929.791906216892	200.273342405525	1679.67432758477	1415.20249351722	161.637860070934	1998.64908519755	1032.17808306992	189.515004092785	1930.67194748123	1175.46055183336	150.346337047627	1824.89146188665	968.758418431431	151.209378078494	1905.17373713612	1239.30913945334	207.996676970646	1981.77046291259	861.733851620718	165.161176205973	1416.30040050987	1832.69265061587	223.479542681641	2770.38568723959	1099.65800688112	225.453497395429	1954.46665058936	1429.42321470276	147.139003823653	2018.26502678502	977.393537053423	213.934170103957	2152.00406593205	1437.65965378082	135.924291698621	2757.69149668918	936.497507447033	152	2172.87573608348	1095.26689977592	156.314760770662	2062.1482362279
832.397598915372	160.917770049098	1409.2034331402	1352.61526830307	266.856613122982	1976.5297145574	930.663836208318	200.256224231808	1682.32503273541	1415.24212792398	161.584597940354	1998.93341727735	1033.02526563224	189.594180982566	1932.87838669948	1175.48584323765	150.405674393882	1824.51961719589	969.851648641662	151.247971403037	1907.49122090266	1239.83409476795	207.988250197392	1982.82981781259	862.605737527338	165.18761264307	1418.45920828813	1833.39726209018	223.449466882651	2771.91693699456	1100.09283128812	225.522373611375	1955.96785925777	1429.89488853851	147.159183168863	2019.09668711336	977.578584323106	213.959820723185	2153.10913029923	1437.85771153422	135.907347469387	2758.43638692553	936.746109037938	152	2174.11890233273	1095.64037657453	156.276136516073	2063.32930803938
832.810108936884	160.887491895296	1410.92739393188	1352.61638661297	266.769559196543	1977.35640390104	931.421045031562	200.232618954335	1684.77581151496	1415.03974540311	161.517985216986	1998.87460265932	1033.74273556306	189.673127237637	1934.99937215455	1175.30659450077	150.457893655905	1823.96636823584	970.790416244916	151.280268011399	1909.72105024669	1240.18589170256	207.974893555147	1983.75460352754	863.321320671906	165.217104979004	1420.37995236956	1833.78220920105	223.397245117319	2772.9221094955	1100.3593077013	225.574847003116	1957.11807512727	1430.07848675618	147.175054304917	2019.40006916275	977.761781148081	213.971850142533	2153.69472456798	1437.99187893576	135.867035702693	2758.11593796595	936.925677024375	152	2174.66311602203	1095.94823383989	156.224209336535	2063.81154096265
833.07371489762	160.84336237419	1412.3898081989	1352.46496420536	266.660050212132	1977.92843393838	932.009830867902	200.20095130524	1686.87096937281	1414.57232913066	161.440508283302	1998.33829748214	1034.26860678054	189.740585547961	1936.8941919653	1174.88649154184	150.491116106031	1823.2151392849	971.521700979763	151.304478076902	1911.76311410176	1240.31490190384	207.953299073663	1984.4822087689	863.827398712806	165.244642811461	1421.96854229079	1833.82026277835	223.32704648565	2773.42100983516	1100.44730692075	225.599328867164	1957.90989522559	1429.95971854935	147.183485885345	2019.22443390574	977.920077027518	213.968916079999	2153.79004483582	1438.02407367666	135.809738473358	2756.85993150159	937.014295462803	152	2174.56435825739	1096.16014113391	156.167339822261	2063.64509337722
833.177007656416	160.791407669802	1413.52404178391	1352.14859648153	266.529473161733	1978.19625122457	932.406880555614	200.16356636017	1688.55751776299	1413.87902267772	161.358278553597	1997.34977256264	1034.58411410481	189.787029423611	1938.48076090468	1174.25441971722	150.498246656007	1822.31349064213	972.038219240424	151.319428178367	1913.56606101985	1240.22808901484	207.921115796128	1985.00408098307	864.11155932049	165.265889559533	1423.22299225344	1833.55834080679	223.247988558491	2773.57726830631	1100.38458871403	225.590897286735	1958.43699886543	1429.58386579177	147.183485885345	2018.74366332908	978.042752847647	213.951971850766	2153.52038176238	1437.94982912018	135.742280163034	2754.97910410008	937.011848213155	152	2173.9999388066	1096.27043492574	156.113630179914	2063.00449057871
833.134259903432	160.739646706602	1414.35169276471	1351.6838605309	266.382319412218	1978.19917007513	932.617299337713	200.123127125378	1689.86811260878	1413.04720270354	161.277203780994	1996.06940240098	1034.70671228079	189.806936900703	1939.73227910052	1173.48924708929	150.476999907935	1821.3449511202	972.366247891853	151.324478274546	1915.11842410712	1239.97523358924	207.8760898261	1985.35288344604	864.199480965887	165.276136516073	1424.20758762051	1833.09803501155	223.167575883586	2773.62146994892	1100.22461912115	225.54788984084	1958.84847664701	1429.03941055932	147.175054304917	2018.19028003099	978.128943274292	213.922443019025	2153.08190269777	1437.79407437471	135.674187261648	2752.91178050002	936.93411737095	152	2173.2336480274	1096.29748419168	156.070480148294	2062.15808408353
832.979135482964	160.693408951905	1414.95900640069	1351.10464905141	266.224209336535	1978.04381592435	932.66803629477	200.084936148072	1690.89669796751	1412.18741626796	161.203745636985	1994.75071289553	1034.68470749686	189.798960560186	1940.66329330265	1172.70529743452	150.430757346064	1820.41056507933	972.560201397206	151.319428178367	1916.43742086408	1239.63942908687	207.818015060839	1985.58575155981	864.149506479481	165.273080547663	1425.03816060815	1832.58302963791	223.093629982271	2773.805542356	1100.04133963206	225.475695402714	1959.32293510656	1428.44773876945	147.159183168863	2017.80658880396	978.184224130784	213.880740078351	2152.67813895214	1437.60058096038	135.614087438572	2751.09638349273	936.807956662766	152	2172.53500613649	1096.27292822835	156.041506499712	2061.38461841045
832.755967786384	160.656809755131	1415.46972611567	1350.46398710584	266.061156926116	1977.87192401203	932.603895337163	200.052473253798	1691.76173723628	1411.41641990685	161.142181626031	1993.68635267999	1034.58309822194	189.765711917616	1941.32660935715	1172.02813499	150.366448276164	1819.62156174618	972.689003352436	151.304478076902	1917.56798787024	1239.31685448485	207.747365996432	1985.77972497831	864.037373015351	165.25613631843	1425.84316249299	1832.16191621113	223.029756697104	2774.33634924015	1099.90569657859	225.382319412218	1960.01944265105	1427.9376284572	147.137676600757	2017.79196597906	978.220116750804	213.82843764055	2152.48014309927	1437.42259011081	135.568809376654	2749.88552655887	936.666249434817	152	2172.12512391474	1096.23647562105	156.028149857467	2060.91421687356
832.513207026623	160.630137722191	1416.00903363112	1349.82272577514	265.898917788843	1977.82366227374	932.475627082066	200.02710225131	1692.57328507522	1410.83461036199	161.095563875471	1993.13967417093	1034.46791762385	189.710929182089	1941.79343193409	1171.57163858806	150.292987003669	1819.08554793993	972.822332503498	151.280268011399	1918.56860333283	1239.09950255186	207.667499533729	1986.0140893725	863.940859332822	165.226729392565	1426.7318248736	1831.96420935613	222.976570549283	2775.33331330988	1099.87732118043	225.276659872657	1961.04172589866	1427.626028961	147.112832013765	2018.26699035981	978.242354464432	213.767822189035	2152.5956812033	1437.30003761274	135.543433566992	2749.49093718693	936.534301965245	152	2172.14085332962	1096.21683202143	156.029756697104	2060.88814031677
832.294022914615	160.611703112635	1416.68014865688	1349.24428549999	265.742542020895	1978.01490847722	932.333387718508	200.007099550358	1693.41167515146	1410.50601898322	161.065550279303	1993.28997338859	1034.3935028379	189.640306310128	1942.14712339888	1171.41363357216	150.219362643322	1818.9074166628	973.017311086606	151.247971403037	1919.51341975117	1239.05313428286	207.583009080793	1986.36738667712	863.919972587442	165.188136137596	1427.77492408847	1832.07071265326	222.933760319346	2776.8302169133	1099.9874647559	225.167339822261	1962.42536022053	1427.5957255928	147.087053926439	2019.27861149864	978.255253313832	213.701123434561	2153.06239372243	1437.26100306817	135.540377598582	2749.9748639022	936.430247467434	152	2172.62571635936	1096.23140837834	156.042050674087	2061.3474716097
832.126250590067	160.597125278888	1417.52603246552	1348.77630061732	265.596174019676	1978.49461412956	932.211782663891	199.988250197392	1694.30043087237	1410.45001950815	161.05353591906	1994.17020897055	1034.3884541419	189.559229858837	1942.46234481131	1171.57606409085	150.152883822482	1819.16095528549	973.307928454573	151.209378078494	1920.47720435553	1239.20207486294	207.49887109887	1986.89606682927	864.007465283812	165.144887823202	1428.99309974951	1832.50036967684	222.898917788843	2778.7807027854	1100.23298468779	225.059852420895	1964.13516071824	1427.88210828093	147.062484149013	2020.80771016492	978.260356372258	213.632136587561	2153.85472038865	1437.31894662846	135.55905613555	2751.27629948628	936.364623730434	152	2173.54341245651	1096.28474491945	156.061156926116	2062.24439194591
832.021942120429	160.580476606909	1418.53144448891	1348.4476733214	265.463059757792	1979.25104471567	932.12655891953	199.965798198333	1695.21457443344	1410.64654409658	161.058450728946	1995.68328088471	1034.45525390301	189.472263845776	1942.79038620374	1172.02199262097	150.098013173577	1819.86642628619	973.701889294391	151.166889389524	1921.52395912997	1239.52554026527	207.419523393091	1987.62114180118	864.201448169129	165.101880377306	1430.35069489542	1833.20589942419	222.871265850562	2781.06359025321	1100.5797607577	224.958319777002	1966.06430605879	1428.46292889898	147.04072345119	2022.77185543807	978.260134387527	213.564330543824	2154.91077788461	1437.4795479996	135.596174019676	2753.270108091	936.340863392245	152	2174.80933310925	1096.37147345107	156.082403674188	2063.47918866403
831.975722700163	160.555884111807	1419.61871563343	1348.26276905661	265.345665405154	1980.20924505215	932.072206410445	199.934170103957	1696.08130819331	1411.05027913678	161.077556980975	1997.62471927817	1034.57382773457	189.382848331023	1943.13988270748	1172.66858854406	150.057123506049	1820.96552738537	974.18054286168	151.124454348275	1922.6848986899	1239.96672312281	207.348119510435	1988.5118070009	864.467432121616	165.064502673146	1431.75636732518	1834.08055018379	222.848463059178	2783.48693488725	1100.96621279012	224.862844589904	1968.04291302148	1429.25588995367	147.023779221956	2025.0207530382	978.257351483962	213.498844906425	2156.14140355923	1437.73925857769	135.64521842024	2755.79536885771	936.355981489722	152	2176.30630500031	1096.47950680648	156.101082211157	2064.92461525755
831.971263376279	160.5191384954	1420.67425762426	1348.20745265583	265.244469088175	1981.25608065299	932.028622656813	199.892142147546	1696.80108909432	1411.61355507609	161.107510119041	1999.75229929171	1034.70827231897	189.292987003669	1943.49230838692	1173.40968772787	150.029756697104	1822.34445428542	974.706679935012	151.084936148072	1923.9656019531	1240.44770237477	207.286149311173	1989.50731235733	864.748209196269	165.035529024564	1433.08026373368	1834.98439816901	222.827372275514	2785.811749319	1101.3183255407	224.772192824545	1969.86276224904	1430.13662765964	147.011749802608	2027.34139653163	978.253237032287	213.436119888913	2157.43869569923	1438.08435457683	135.699555343165	2758.66809493404	936.400235126907	152	2177.89534050085	1096.59382808284	156.113897378801	2066.44456587186
831.985799803241	160.470184933115	1421.56933689719	1348.2537299381	265.158656149942	1982.2672681734	931.963819709565	199.83871212194	1697.26111496826	1412.29258447538	161.143132885243	2001.84468726845	1034.81769911053	189.202962588463	1943.78624270527	1174.14563707567	150.013077025505	1823.8398349143	975.230192466566	151.052473253798	1925.31404484472	1240.89215719558	207.233505033862	1990.51283721683	864.978230525859	165.016400054859	1434.17029079837	1835.77817484763	222.803960583676	2787.76615208219	1101.56329556442	224.685506428224	1971.29671928412	1430.96640840917	147.004650252251	2029.46312670316	978.242994031189	213.372853466373	2158.67724717709	1438.48651146424	135.751769867588	2761.67785916177	936.45670631896	152	2179.42103059017	1096.69468516121	156.118459717673	2067.90308218031
831.990904597905	160.41153463472	1422.17591978134	1348.36308663907	265.083608925175	1983.11775146861	931.839692366033	199.775007614943	1697.34409135346	1413.045661398	161.179704557167	2003.73355589616	1034.86091848388	189.11137732277	1943.94185411063	1174.7983511103	150.004650252251	1825.28204723792	975.696640588161	151.028429474207	1926.63855606044	1241.23665294681	207.18761264307	1991.43078135135	865.095876043768	165.005977475148	1434.87609394755	1836.34831524429	222.771689392763	2789.09021840063	1101.64236104816	224.599953310026	1972.13486851191	1431.62012098282	147.001327222897	2031.10266425315	978.21107712792	213.304830547915	2159.70943779896	1438.90035375988	135.794927140118	2764.56614911795	936.500495817186	151.998672777103	2180.70819576887	1096.76040233935	156.1138973788	2069.15588328754
831.952334783836	160.349572163603	1422.37779267261	1348.48532500295	265.010966754086	1983.69304465227	931.616076510883	199.702790459141	1696.93936830295	1413.81806325705	161.21261319447	2005.30857959883	1034.80010630456	189.015783222676	1943.85803427989	1175.32118204723	150.001327222897	1826.51429395861	976.053372143508	151.013077025505	1927.80330123129	1241.43739326008	207.144776151114	1992.15957281887	865.052484632886	165	1435.07731994789	1836.61974834938	222.723656436355	2789.57404648001	1101.51650099092	224.513327098649	1972.22279113088	1432.00564419654	147	2032.00892659871	978.1345896815	213.225681786408	2160.38423710035	1439.26823571447	135.824194473137	2767.05147121423	936.503933977379	151.994022524852	2181.58596111355	1096.76680073811	156.101082211157	2070.06257192028
831.833297237628	160.290560423239	1422.07290920077	1348.56532767477	264.929799468446	1983.88653908131	931.257250728531	199.624256026509	1695.95362454809	1414.53642800624	161.238758811913	2006.48468777834	1034.60029364256	188.912409406134	1943.43393888227	1175.68727487608	150	1827.41996692721	976.256000042192	151.004650252251	1928.6634375617	1241.46299212669	207.098427765363	1992.61152443726	864.816928541088	164.995349747749	1434.69267078954	1836.56298508057	222.654072736984	2789.07961303026	1101.17339845584	224.423042863408	1971.48117255269	1432.08196508246	147	2032.00466785565	977.983948191604	213.129078738347	2160.55371192864	1439.52247007322	135.834852425159	2768.83720585058	936.439796726951	151.982272722244	2181.89401251591	1096.68733895974	156.082403674188	2070.48160859973
831.595982927762	160.239818835924	1421.17197434917	1348.54109436836	264.826856425878	1983.59311599235	930.736276405048	199.54185235232	1694.32208912217	1415.11003764544	161.255703041147	2007.16943752177	1034.23521641075	188.799315893647	1942.58000150443	1175.88153796529	150	1827.92040584488	976.278558776294	151.001327222897	1929.09145582302	1241.29273069486	207.042224397373	1992.71160907512	864.373433399792	164.988250197392	1433.69215404997	1836.18028549087	222.557648644165	2787.56913687771	1100.62224220984	224.325291547692	1969.92449442918	1431.85272721608	147	2031.03272657546	977.731874227994	213.00909345693	2160.09956570942	1439.60246688427	135.823616572302	2769.66196824605	936.286368024672	151.958493500288	2181.51356637375	1096.49622561923	156.061156926116	2070.28726869422
831.212441257676	160.200684106353	1419.61909945632	1348.36040081823	264.690652274995	1982.72590679533	930.047125472144	199.45814764768	1692.0296715148	1415.45270072057	161.262020317978	2007.26986124868	1033.6863616948	188.673127237637	1941.23132635422	1175.8903977317	150	1827.9680820465	976.114430774142	151	1929.00087563622	1240.90880755517	206.967177172606	1992.39707679909	863.712489508084	164.974893555147	1432.08850155492	1835.48241600997	222.431714117872	2785.08745026167	1099.88635881713	224.216734527915	1967.6482659831	1431.34449095083	147	2029.15062011413	977.359802344329	212.861807549608	2158.95800267895	1439.46302901231	135.789585586632	2769.35890827484	936.032252598468	151.917770049098	2180.39064038261	1096.17289234335	156.04072345119	2069.40005556849
830.671287806641	160.173317297408	1417.40724450474	1347.98533539818	264.51334030576	1981.23390448966	929.205921291626	199.374416750595	1689.12638422452	1415.49900318223	161.257457979105	2006.7018123637	1032.95343642263	188.534123413984	1939.36437823492	1175.70737012523	150	1827.5496196959	975.779862040323	151	1928.36075509282	1240.30473289175	206.867579877068	1991.63011635394	862.833905956341	164.953299073663	1429.93236866979	1834.47960759899	222.278166381062	2781.74752597507	1098.9973807616	224.094680495717	1964.80862093275	1430.59460593677	147	2026.50589255968	976.856940031994	212.685592238133	2157.1299879232	1439.07668550707	135.734288970927	2767.8869637544	935.674366022712	151.856613122982	2178.54642705735	1095.7045487904	156.023779221956	2067.80491082905
829.989176383684	160.154882687852	1414.59948448416	1347.41326931581	264.291932807918	1979.12992762481	928.254875933958	199.291232065711	1685.73143187734	1415.23431129931	161.242887873503	2005.42648001519	1032.05346691252	188.383646635115	1936.99436280876	1175.332606664	150	1826.67242816828	975.307211512498	150.998672777103	1927.18404539607	1239.48658298838	206.739537941804	1990.39437122141	861.742306263841	164.921115796128	1427.30209186015	1833.18069494651	222.100820353295	2777.71072358194	1097.98952681777	223.958586975888	1961.5939666556	1429.63703614297	147	2023.30130857307	976.222921871895	212.48418737167	2154.68485766846	1438.43972988633	135.662849281478	2765.33674734321	935.217232116787	151.774209448794	2176.07288735694	1095.08903814376	156.010422579711	2065.56212386884
829.206411571307	160.142326853007	1411.33089317969	1346.67153019416	264.030340205002	1976.50121301553	927.252763974974	199.207265107301	1682.02421624361	1414.6872786603	161.220080274945	2003.47358024768	1031.01836875057	188.224209336535	1934.19355205775	1174.77727584949	150	1825.37788049693	974.736147243118	150.994022524852	1925.53414562319	1238.47471822146	206.582213614417	1988.71562687426	860.452832112069	164.8760898261	1424.29963722674	1831.59481313738	221.906968598413	2773.16222285059	1096.89415903783	223.809738473358	1958.19882340576	1428.49839424147	147	2019.7556815886	975.46471334926	212.263588409373	2151.74591072074	1437.56692755724	135.581681857896	2761.90833046127	934.669526251165	151.673127237637	2173.11517773564	1094.33720303257	155.998672777103	2062.80043824555
828.381164718468	160.131536743178	1407.80019527385	1345.81411323495	263.736738269034	1973.50916950379	926.26467690087	199.119781378349	1678.22238241769	1413.92633990506	161.191366446397	2000.9546865562	1029.89516854265	188.059829703219	1931.07266033839	1174.06827373203	149.998672777103	1823.72572262426	974.108260335899	150.982272722244	1923.49914161765	1237.30743834698	206.399246485997	1986.64905313815	858.995209084977	164.816687837942	1421.04373050943	1829.74332341914	221.704808983274	2768.29062902197	1095.74333618908	223.652056112736	1954.80315978379	1427.19938994397	147	2016.06663641226	974.598996655359	212.031944137349	2148.48124231991	1436.49480267019	135.49887109887	2757.87754868373	934.04579867798	151.559229858837	2169.85416869108	1093.47435757321	155.983599945141	2059.7004553196
827.579177249807	160.118547631051	1404.24711425738	1344.91319736556	263.423042863408	1970.37562666635	925.351931848911	199.025627901552	1674.5578574466	1413.04080595485	161.159271082241	1998.06382401408	1028.74101489867	187.894267536593	1927.78080111219	1173.24988563303	149.995349747749	1821.80541722497	973.46398798547	150.958493500288	1921.19703705943	1236.03894631878	206.197628275886	1984.28808171852	857.416245910798	164.742715744182	1417.67427906395	1827.67169307753	221.50192706728	2763.29656451391	1094.57221729766	223.490177264672	1951.57534804503	1425.76693800273	146.998672777103	2012.41252512065	973.652582514551	211.797721471864	2145.07209915762	1435.27478002102	135.419523393091	2753.53306707714	933.364932257195	151.440770141163	2166.47197027321	1092.53628946896	155.958493500288	2056.45245771009
826.859562214041	160.102409434054	1400.91917360672	1344.04321874381	263.101880377306	1967.34877721596	924.563083970327	198.922443019025	1671.24704407586	1412.12154244844	161.12618865601	1995.04867217731	1027.6135844652	187.730792218287	1924.49681377941	1172.37594668744	149.988250197392	1819.73998580237	972.841413281332	150.917770049098	1918.77204541294	1234.73063669149	205.987184832356	1981.76060282293	855.778779453357	164.655749731121	1414.3311982311	1825.45744212271	221.303093540407	2758.36144745357	1093.42229222092	223.327416936738	1948.64977182522	1424.2433246012	146.995349747749	2008.92740786942	972.661880866811	211.568547518792	2141.7032727198	1433.97245282855	135.348119510435	2749.15719439514	932.6514582871	151.326872762363	2163.1433563669	1091.56863926608	155.919097271995	2053.24573738854
826.270967873547	160.082403674188	1398.03840831843	1343.27130216263	262.785020410043	1964.66939353868	923.931091498534	198.808411250461	1668.46652024592	1411.25191294777	161.094153476797	1992.17473840308	1026.56556269804	187.571067574823	1921.40391200114	1171.50293039091	149.974893555147	1817.67456429734	972.272788534771	150.856613122982	1916.37926257545	1233.44466127214	205.78045807117	1979.21308973138	854.156256358309	164.559229858837	1411.15816739092	1823.20543405881	221.112160371292	2753.67576392561	1092.33911578377	223.167339822261	1946.14036090153	1422.69028872063	146.986922974495	2005.72994274464	971.669179648279	211.348633460186	2138.53837963138	1432.65813842514	135.286149311173	2744.99213831928	931.933050683679	151.225790551206	2160.01682502299	1090.62010477169	155.861263375233	2050.24298608034
825.841010323528	160.061156926116	1395.78179607846	1342.64621950609	262.482276640875	1962.545917187	923.469622313454	198.683549817348	1666.34237471697	1410.49079834934	161.065807178367	1989.6946264822	1025.63797862341	187.416358831454	1918.66747700435	1170.68464879626	149.954626296559	1815.75982197357	971.783043238536	150.774209448794	1914.16327043071	1232.23573517999	205.587392134157	1976.79413602017	852.625904209894	164.45814764768	1408.27923708432	1821.03912678626	220.930673351317	2749.4097823022	1091.36877053576	223.010422579711	1944.12001553908	1421.18410843313	146.970243302896	2002.9101797709	970.719213252476	211.140854403134	2135.71054136377	1431.40664367304	135.233505033862	2741.23674728122	931.242110358378	151.143386877018	2157.21263714979	1089.74337944871	155.785959251402	2047.57966717852
825.581060501356	160.04072345119	1394.2439695477	1342.19555719069	262.199712216917	1961.11006640904	923.176086583643	198.548807279125	1664.92498549934	1409.87266994065	161.042050674087	1987.78056343277	1024.85080190675	187.266781201282	1916.40535585855	1169.95612071179	149.927093271276	1814.11718210956	971.380506105365	150.673127237637	1912.23433768591	1231.14082213278	205.415940405761	1974.62506237396	851.257803226888	164.357039244078	1405.7852257146	1819.07929946911	220.758680217892	2745.69090565286	1090.54926632948	222.855112176798	1942.60727017881	1419.80108431582	146.941549271054	2000.5168797388	969.850590944462	210.947353022915	2133.31767409854	1430.28221906964	135.188939865967	2738.05043989262	930.608400338396	151.082229950902	2154.82492900804	1088.98617067328	155.696906459593	2045.36549409826
825.486691834232	160.023779221956	1393.4416673644	1341.92560773358	261.940424288555	1960.41398326747	923.035929132284	198.405241116599	1664.20161702609	1409.40738279106	161.023779221956	1986.51298015991	1024.20565442966	187.121886137171	1914.6778407781	1169.33171036921	149.892489880959	1812.82218776665	971.062590921265	150.559229858837	1910.66597165824	1230.17764689188	205.268248310131	1972.78970451384	850.105913966677	164.261065583996	1403.72525658705	1817.42334152705	220.596086106298	2742.58743093077	1089.90436098109	222.69823368249	1941.56583387192	1418.60279184506	146.898663797069	1998.54771401781	969.095023556777	210.768434214044	2131.41323860069	1429.33333548031	135.150753626262	2735.53571557026	930.057705865989	151.041506499712	2152.90975066651	1088.38718641498	155.599953310026	2043.67326027264
825.540189601355	160.011749802608	1393.3017817142	1341.81983794285	261.703943958751	1960.41118547818	923.025568731867	198.256392614069	1664.09258116025	1409.08554116388	161.011749802608	1985.85435988725	1023.68928221623	186.981321463032	1913.47990984728	1168.80408085905	149.852216862506	1811.88165470873	970.818122929135	150.440770141163	1909.49373152657	1229.34482851281	205.140854403134	1971.31875412698	849.19935284901	164.173317297408	1402.10164667829	1816.12401749586	220.440770141163	2740.08644398504	1089.43672046614	222.53545063688	1940.90793923808	1417.61761866299	146.841343850058	1996.93946769981	968.471661475883	210.605386610799	2130.01117190745	1428.58583707874	135.117482266016	2733.73149632924	929.609659947873	151.017727277756	2151.48613996137	1087.96917394826	155.50192706728	2042.53075547009
825.714465813497	160.004650252251	1393.68796385782	1341.8461111499	261.487471067501	1960.97842316057	923.116570041883	198.106182896144	1664.47422668204	1408.8888705414	161.003323029354	1985.69272253788	1023.28108103222	186.84537917001	1912.74983187196	1168.35404961477	149.807218417328	1811.23951795731	970.638843686551	150.326872762363	1908.7261739706	1228.63084565961	205.026410950074	1970.19356121954	848.538583756686	164.095828433106	1400.87460683821	1815.18363428011	220.291343737799	2738.10454951602	1089.13037266437	222.364517665409	1940.51205501148	1416.84092431977	146.771930966684	1995.58036722464	967.990859939813	210.459824641816	2129.07844628255	1428.04386295849	135.088381149336	2732.59369254272	929.275166178453	151.005977475148	2150.51993458831	1087.73606326213	155.409276436551	2041.90304447397
825.972059238563	160.001327222897	1394.42173514543	1341.95705716452	261.28747653407	1961.93863649767	923.273364112746	197.958319777001	1665.19153296603	1408.79001910383	160.996676970646	1985.87885088409	1022.96166650566	186.714200460066	1912.38308644149	1167.9641328998	149.757630108427	1810.80100555507	970.524802856908	150.225790551206	1908.34968111214	1228.02275656277	204.916391074825	1969.36056491849	848.093863222335	164.029756697104	1399.97421695907	1814.55441071257	220.144887823201	2736.51109446548	1088.94936222886	222.184813108242	1940.24737278812	1416.23553791026	146.697168317454	1994.33677142986	967.651848589323	210.331523014614	2128.53270875964	1427.69114934947	135.062484149013	2731.98796436196	929.056198064173	151.001327222897	2149.91795508712	1087.67306877608	155.326872762363	2041.68710502769
826.268010663752	159.998672777103	1395.31335384856	1342.09935699728	261.098803729047	1963.09624687701	923.455377244971	197.816514114655	1666.07229899386	1408.75803245042	160.986922974495	1986.27056899389	1022.71528167288	186.58898655594	1912.25665935699	1167.62853214836	149.704117682038	1810.47602898716	970.48340950219	150.143386877018	1908.33223878328	1227.51447820173	204.803966145897	1968.75901479109	847.81516877418	163.975699321345	1399.31724043198	1814.16081721988	220	2735.17407312169	1088.84800490135	222	1939.99833884997	1415.75411880428	146.623820445361	1993.09546228727	967.440475289655	210.221140298956	2128.24542605406	1427.49655604993	135.04072345119	2731.70314346347	928.943903303118	151	2149.5320910225	1087.74956463964	155.257284255818	2041.72054851893
826.55271895886	159.994022524852	1396.17310633078	1342.22138041208	260.917596325812	1964.25845082777	923.613233107683	197.683140032737	1666.92740218466	1408.75789994739	160.970243302896	1986.74526792782	1022.52405251603	186.471224673185	1912.22788606196	1167.34868769136	149.646283785276	1810.18371905572	970.516833648692	150.082229950902	1908.60166035314	1227.10080706415	204.684877040245	1968.31796136653	847.641323427429	163.93399638067	1398.82316030277	1813.91777018205	219.856439399695	2733.9895445741	1088.77551951624	221.816514114655	1939.6784506912	1415.3526474302	146.55896265995	1991.79541129813	967.332396631446	210.125659599262	2128.05457417335	1427.4286780928	135.023779221956	2731.48901190655	928.921927361761	151	2149.18118244022	1087.92656519616	155.200689668575	2041.80400995177
826.771199698364	159.982272722244	1396.82023467943	1342.27227481029	260.73895713368	1965.24825935468	923.687642524565	197.559579630076	1667.55589020678	1408.74734180936	160.941549271054	1987.20552115307	1022.36820103276	186.361689496329	1912.14920053642	1167.13015002622	149.58509585954	1809.86288290805	970.619380516908	150.041506499712	1909.05030232837	1226.77608528793	204.55790263594	1967.96603628368	847.508291675396	163.904895263991	1398.42044498633	1813.73898027694	219.713306514452	2732.89865869092	1088.68008220928	221.641459809738	1939.23327338692	1414.99585474815	146.508354975164	1990.44630760384	967.292261176084	210.04072345119	2127.78470212765	1427.45680954895	135.011749802608	2731.10126525906	928.965214690434	151	2148.67937049598	1088.15873803231	155.155403878512	2041.72727776835
826.86881510971	159.958493500288	1397.08451339776	1342.20797954519	260.559229858837	1965.90639072738	923.617430109009	197.446747616311	1667.74950792349	1408.68542312599	160.898663797069	1987.56163298705	1022.2237099254	186.262392806893	1911.87781001936	1166.97766690691	149.521852154676	1809.46289432292	970.773335274719	150.017727277756	1909.54048769785	1226.53276399303	204.424370086305	1967.62882843033	847.357714124106	163.8861026212	1398.05162916065	1813.54568316747	219.570979661445	2731.88308400627	1088.51522959627	221.480949417978	1938.63632669584	1414.65857078829	146.47332867696	1989.12180264488	967.278114023211	209.95927654881	2127.27925249132	1427.55777475284	135.004650252251	2730.36947096102	929.044676839983	150.998672777103	2147.87680113204	1088.40046473658	155.118809488912	2041.31340782485
826.798213999961	159.917770049098	1396.80839459944	1341.99625887125	260.376267468017	1966.08892897563	923.345620643334	197.345577491776	1667.30715501283	1408.54580234775	160.840016627161	1987.72217701268	1022.05850808739	186.171990074511	1911.28257472185	1166.87936009362	149.45814764768	1808.92919407555	970.94774375316	150.005977475148	1909.91845311655	1226.3480316627	204.284039039754	1967.22516728314	847.142792889383	163.875562807179	1397.65961852222	1813.27297957464	219.429020338555	2730.92443545202	1088.24557934332	221.338622564971	1937.8674150257	1414.32373736946	146.452519943772	1987.91091079416	967.246739683397	209.873013177841	2126.42631683985	1427.71482690569	135.001327222897	2729.23661024891	929.129591933051	150.994022524852	2146.68946312195	1088.60728124234	155.088381149336	2040.44979816835
826.524215324998	159.857940345879	1395.85949886036	1341.61204312503	260.188136137596	1965.67517386146	922.829294065253	197.255957032922	1666.06328049399	1408.32681987366	160.76860793733	1987.60248073109	1021.84457291029	186.089850957958	1910.2587091019	1166.81777321545	149.395744171135	1808.19671282241	971.109648792697	150.001327222897	1910.03278938877	1226.19613367665	204.137583125157	1966.6697772919	846.827001681679	163.868375343444	1397.17552274404	1812.86269748977	219.285366262651	2729.97100383937	1087.84532488519	221.214040748598	1936.89280412887	1413.96653268129	146.441203418446	1986.86709673309	967.157912197731	209.774209448794	2125.17014283427	1427.91245158403	135	2727.75720658618	929.188816832223	150.982272722244	2145.10640788721	1088.74009925083	155.062484149013	2039.10172339337
826.033473035432	159.778859701044	1394.16539352164	1341.04733996509	259.995349747749	1964.59685962145	922.049209406567	197.177334686911	1663.92353733154	1408.05983448513	160.690068767097	1987.16519354049	1021.55728224069	186.012029419348	1908.73956572728	1166.77145464955	149.336369707827	1807.19454657198	971.226666525895	150	1909.74186889513	1226.05102477102	203.982272722244	1965.88066047435	846.388041370814	163.857411289131	1396.50946394978	1812.27441776942	219.137583125157	2728.90476205034	1087.30244733845	221.101880377306	1935.64807652406	1413.55626232749	146.432613487766	1985.951089679	966.978512559927	209.656727182778	2123.51056044609	1428.12780318355	135	2726.06506919728	929.193613332536	150.958493500288	2143.1794827631	1088.76795442051	155.04072345119	2037.31663217252
825.338022488335	159.684877040245	1391.72364976712	1340.30998139567	259.797459614002	1962.84773562011	921.012430097328	197.104855673248	1660.87889116349	1407.79703330264	160.611791026013	1986.41943976323	1021.18867974178	185.934192821633	1906.70159200966	1166.73512887683	149.281499058922	1805.86696922639	971.272161567732	149.998672777103	1908.91784817471	1225.89968705124	203.814932899984	1964.79689718589	845.822218521888	163.83536637491	1395.55118745018	1811.49432530748	218.982272722244	2727.53525609097	1086.62247285291	220.994022524852	1934.02991168608	1413.062579786	146.419790591978	1985.00411700104	966.681669334246	209.516396136228	2121.48469035353	1428.32058616366	135	2724.30131650745	929.1168503818	150.917770049098	2140.99220542588	1088.67117043439	155.023779221956	2035.19616552875
824.479116842614	159.583009080793	1388.62361330957	1339.43431873795	259.593975834879	1960.51157800985	919.757169651704	197.032727451909	1657.02706940148	1407.6031075395	160.542018430717	1985.43898139989	1020.7446972329	185.851766429769	1904.17730568391	1166.71582475924	149.232177810965	1804.20077343139	971.227665909258	149.994022524852	1907.46409665961	1225.74603229306	203.632403786447	1963.39706330763	845.149284872936	163.795456196866	1394.1944302349	1810.55329068189	218.814932899984	2725.64551102902	1085.83319002374	220.880392344938	1931.93046679464	1412.47378783459	146.397426302712	1983.77760197146	966.252145873422	209.352562715114	2119.16189838427	1428.43478114464	134.998672777103	2722.56438743829	928.93738510276	150.856613122982	2138.64480261646	1088.44085209539	155.010422579711	2032.87460677108
823.516615228833	159.481493592353	1385.03084494432	1338.46860608615	259.380992189321	1957.7475896252	918.343850525685	196.951393949931	1652.55833285177	1407.51802869185	160.486594277341	1984.32709442921	1020.24407209652	185.760181164076	1901.26667647761	1166.73126045416	149.188939865967	1802.25106119188	971.082170509983	149.982272722244	1905.34942049384	1225.60480268875	203.433570259574	1961.72064570385	844.409747423681	163.733485997604	1392.37026142931	1809.52727741816	218.632403786447	2723.06757119246	1084.98225389349	220.750430226838	1929.28286910318	1411.81152066655	146.363190442512	1982.02217159982	965.689789095928	209.167085830486	2116.62953611595	1428.40780319049	134.995349747749	2720.86761282061	928.64503222467	150.774209448794	2136.23195138932	1088.08330406394	154.998672777103	2030.48461519532
822.521091353816	159.388029688479	1381.16946488909	1337.47568997695	259.152401965344	1954.77341711092	916.851842798706	196.851962870731	1647.73890067683	1407.54613868631	160.447431676637	1983.18961681478	1019.71526915095	185.655661817743	1898.12185817837	1166.79946133438	149.150753626262	1800.13496529587	970.840820671845	149.958493500288	1902.61647422424	1225.49828227574	203.220957065105	1959.86050381814	843.659316851385	163.649348015681	1390.07350008955	1808.52772441329	218.433570259574	2719.75672711305	1084.13384355483	220.596874761883	1926.10404300326	1411.13420134107	146.31818719016	1979.58065271044	965.010889392888	208.963143752539	2113.99896678203	1428.18335474738	134.986922974495	2719.16774611633	928.242702314986	150.673127237637	2133.85061808698	1087.61614717614	154.984927168038	2028.14948317363
821.560740336385	159.308194225395	1377.28604518332	1336.52011036079	258.900042771343	1951.83299716443	915.367355365855	196.727508522456	1642.8787707282	1407.6447775393	160.422091604195	1982.09740295069	1019.18938811735	185.536940242208	1894.94811423529	1166.92525983271	149.117482266015	1798.02817389393	970.521008249095	149.917770049098	1899.41138680117	1225.44245877906	203	1957.96568001524	842.960799444212	163.548807279125	1387.38809952059	1807.68624183458	218.220957065105	2715.85770689038	1083.36080123844	220.417170204715	1922.53664916391	1410.53646454935	146.266693287904	1976.48618279288	964.251766654379	208.746033966361	2111.39994041808	1427.73630280939	134.971570525793	2717.40796928046	927.752903817505	150.559229858837	2131.60437092669	1087.07490371062	154.963143752539	2025.97853298638
820.688904688288	159.243141865278	1373.61644133049	1335.65507333771	258.61389346017	1949.15914350768	913.971824307764	196.573786841163	1638.29287146288	1407.7322463399	160.403281805949	1981.06334238713	1018.69155840605	185.403825980324	1891.9550199072	1167.08725139119	149.087053926439	1796.11108549437	970.152166840369	149.856613122982	1895.95020679456	1225.43619363655	202.779042934895	1956.19335408791	842.367065233852	163.440770141163	1384.46945381547	1807.11912754754	218.001327222897	2711.67936183955	1082.73062052039	220.214979589957	1918.82589352408	1410.12030568778	146.215233581732	1972.96395531715	963.461296953747	208.521852154676	2108.97559143601	1427.0808050629	134.947526746202	2715.58317446611	927.210679574428	150.440770141163	2129.60920696947	1086.50582877427	154.930847074603	2024.0842237505
819.950175729484	159.191477077452	1370.35554622897	1334.93081830913	258.287282555668	1946.94160173437	912.741142211075	196.391273204393	1634.25868310584	1407.73392329729	160.382677445453	1980.04666380163	1018.23767896237	185.256130756208	1889.32660418211	1167.24053862771	149.056506673866	1794.5236693344	969.768912993154	149.774209448794	1892.48470627418	1225.46142247234	202.565102517529	1954.67869062725	841.914924266592	163.337295342074	1381.5188256811	1806.90180865288	217.783693187146	2707.63338646859	1082.29101760734	219.998672777103	1915.27508747805	1409.9689582538	146.169955519813	1969.38339309984	962.695583461247	208.297209540859	2106.85629323086	1426.27500291069	134.915063851928	2713.75997094579	926.662677458076	150.326872762363	2127.9776971522	1085.96890173919	154.886369820086	2022.57552859323
819.375945696494	159.14688919188	1367.64611541345	1334.38728015227	257.916710025088	1945.3153184007	911.734394331842	196.183224027484	1630.9892326998	1407.60556979242	160.350118979229	1978.98860208342	1017.83654634317	185.095104736009	1887.17294566001	1167.32925334738	149.022996173434	1793.30931151448	969.402071448444	149.67180001474	1889.2364537979	1225.48783071461	202.361618738405	1953.48630035418	841.619573439113	163.249569773162	1378.73810804089	1807.04854675319	217.578179543034	2704.12287762682	1082.0621456007	219.779042934895	1912.17275973098	1410.1172922905	146.135939593248	1966.14789605858	962.006852340548	208.078884203872	2105.13287740903	1425.40752084547	134.876872874622	2712.06137310607	926.154860952706	150.225790551206	2126.7925217849	1085.52387021987	154.832660177739	2021.54419793075
818.990684405281	159.103195182349	1365.57068296394	1334.05779451398	257.504895773627	1944.34751637319	910.993956931827	195.957428135252	1628.60761310534	1407.3617488659	160.29940832196	1977.84643466072	1017.48872911753	184.922443019025	1885.51438491721	1167.30096219489	148.983599945141	1792.4024423553	969.076304889517	149.554579606586	1886.36151258603	1225.48388093853	202.167339822261	1952.59509926726	841.471446463276	163.184110328208	1376.28696769964	1807.50672341675	217.391375435509	2701.42949858792	1082.0326300257	219.566429740426	1909.72322604987	1410.53699971946	146.114957402811	1963.57128709981	961.436453918571	207.872074336482	2103.83746061264	1424.57653412136	134.83643363983	2710.6181721626	925.727076659047	150.143386877018	2126.08200608038	1085.22266598277	154.774463440568	2021.04028904526
818.811047206128	159.053259209609	1364.16075848634	1333.96540057119	257.060096902106	1944.04424847863	910.540830200288	195.722007342225	1627.14676326614	1407.07515361786	160.226986291629	1976.64138268526	1017.19587740905	184.738934416004	1884.28829410857	1167.13366700504	148.934170103957	1791.65307686806	968.811601476978	149.429020338555	1883.93192507007	1225.43178455385	201.976220778044	1951.91058818274	841.445543141172	163.143386877018	1374.2502716832	1808.1740726906	217.225790551206	2699.63689455731	1082.16549743291	219.367596213553	1907.9998652666	1411.14849065896	146.106530629557	1961.79007474591	961.010536228396	207.680588977087	2102.91953971901	1423.86403605386	134.797721471864	2709.48755920718	925.403879708298	150.082229950902	2125.78597668403	1085.0952234769	154.717886008779	2021.033040737
818.839820514196	158.992817273865	1363.40179258619	1334.11289341697	256.595303057776	1944.35368801211	910.371297000404	195.486055931226	1626.55292814985	1406.84764924145	160.134622936212	1975.46682123384	1016.96339765165	184.547200439489	1883.38588682346	1166.8442148186	148.873013177841	1790.89415196152	968.626761708474	149.303093540407	1881.95423742427	1225.33479612288	201.780186923941	1951.30757168424	841.503155406057	163.1239101739	1372.63626084271	1808.92270465506	217.077556980975	2698.63331935469	1082.40683261593	219.183739877119	1906.94775389263	1411.84042980841	146.107510119041	1960.75322129859	960.739026140221	207.505272814309	2102.27087720862	1423.32213079386	134.762730793415	2708.63333623753	925.196452790579	150.041506499712	2125.77400562734	1085.14512937405	154.667511951582	2021.41298272558
819.062153295218	158.920302522982	1363.24856184271	1334.47738141038	256.125659599262	1945.18662582886	910.456629898129	195.257284255818	1626.71445760685	1406.77772361495	160.026485419127	1974.48676393923	1016.7994649763	184.350919183205	1882.68470066454	1166.4871620181	148.800643116544	1789.99971090818	968.539025872998	149.185067100016	1880.38755639857	1225.216520854	201.572574083228	1950.66988974772	841.604501557743	163.118809488912	1371.38387295328	1809.63529423239	216.940170296781	2698.15829411792	1082.7015663794	219.011749802608	1906.40780980136	1412.51024395836	146.112832013765	1960.26588575312	960.621140237098	207.342923045982	2101.74213962967	1422.97163669462	134.730698742687	2707.91351982126	925.103741656496	150.016400054859	2125.86170634977	1085.35237299228	154.625054192658	2021.99514585046
819.440281573846	158.836977814205	1363.61976646808	1335.00502150637	255.665233469473	1946.41686140482	910.741323138063	195.040179276815	1627.46685868952	1406.92402791434	159.909884542929	1973.88492880956	1016.71605304316	184.154882687852	1882.09694724313	1166.14869022097	148.718500941078	1788.95230991258	968.564984044239	149.080902728005	1879.1789421993	1225.11795212386	201.351166585386	1949.94224595228	841.710859658153	163.119874853948	1370.39723271003	1810.2258492302	216.805293368794	2697.90897929592	1082.9995648122	218.844689597087	1906.17701383004	1413.08924453833	146.118547631051	1960.09120213987	960.64481729358	207.186804107525	2101.17324841392	1422.80565518009	134.698228120269	2707.11739047456	925.114722388759	150	2125.8470668832	1085.67865866958	154.588893080341	2022.55044678411
819.911913001555	158.745248218066	1364.39213432134	1335.61276895039	255.223397963274	1947.88219766292	911.146885529543	194.836695497691	1628.60204961387	1407.28509349842	159.790621921506	1973.80429764557	1016.72044394086	183.963397744313	1881.57856076188	1165.92063537457	148.632136587561	1787.84978377335	968.709050408063	148.995176024463	1878.26891918779	1225.08171976366	201.118547631051	1949.14103724128	841.792770007428	163.118459717673	1369.57436493927	1810.65548204764	216.66574807054	2697.63500411987	1083.26357780276	218.673127237637	1906.05912685533	1413.55828229079	146.11978694057	1960.04248970595	960.786975826779	207.028175482432	2100.44445897845	1422.79744506067	134.660312069993	2706.06225557545	925.210437115881	149.983599945141	2125.57406362509	1086.07495086266	154.554667519964	2022.87147067374
820.395693568617	158.64882099676	1365.38918121595	1336.19612684471	254.802910070229	1949.38711573084	911.576730910903	194.645581143184	1629.87377841649	1407.80573557007	159.673927441613	1974.28853304422	1016.80684534579	183.780370157792	1881.13564991782	1165.87408825118	148.546953037308	1786.87736677036	968.955038001856	148.92734726305	1877.60726876135	1225.13706590364	200.881452368949	1948.34951305422	841.828711468486	163.107919903653	1368.8381211226	1810.92348300299	216.518506407647	2697.20227852758	1083.46848186623	218.488749710543	1905.90949184808	1413.94062015443	146.113897378801	1960.04384325428	961.018787035728	206.857940345879	2099.49420680424	1422.92102197992	134.611970311521	2704.65485966678	925.36838169581	149.958493500288	2124.96125201993	1086.49381978119	154.516751469689	2022.81284324063
820.796596152441	158.551064943443	1366.3835176627	1336.63608618541	254.399002004787	1950.70394180365	911.920244734518	194.46227670927	1631.00709336489	1408.39063138069	159.562814746052	1975.26116283986	1016.95193969212	183.606355025466	1880.79836232974	1166.03961189168	148.468678424709	1786.24377797085	969.260849381439	148.874073201852	1877.14191479882	1225.2846698576	200.648833414614	1947.6786699754	841.804118049815	163.083354933401	1368.13540869687	1811.04958625966	216.361885937292	2696.59261450766	1083.59491369461	218.285633461537	1905.6416764074	1414.27943238593	146.09975498826	1960.12265512585	961.300863334905	206.669781490607	2098.32260018894	1423.14623567008	134.550000112259	2702.92463475925	925.559010936558	149.917770049098	2124.01130906017	1086.89005614165	154.468837426277	2022.31705448801
821.018415265186	158.454912531704	1367.11198075696	1336.81724119839	254.001065365036	1951.59092316815	912.06965409957	194.282564423958	1631.71798373943	1408.93992881943	159.459562783955	1976.52853610363	1017.11765970043	183.440770141163	1880.59862983254	1166.40507870929	148.400844856123	1786.11486436183	969.563356176021	148.829067028529	1876.81184797579	1225.50137608607	200.428753139669	1947.23128066602	841.709848103074	163.040897174477	1367.44027874193	1811.05506449972	216.198312336212	2695.87681558852	1083.62592655882	218.060902934342	1905.22194460121	1414.61143969776	146.077753421938	1960.36919174027	961.583943278185	206.461216685259	2096.97990668123	1423.43603485932	134.474293710764	2701.01572519309	925.743664793163	149.856613122982	2122.79639227877	1087.21994555487	154.406346036355	2021.42128568559
820.979189453031	158.362928805848	1367.31729474072	1336.6445433426	253.595809396847	1951.82693984745	911.92978338572	194.102409434054	1631.75238176743	1409.37032842238	159.364256028745	1977.82871444527	1017.24797325912	183.279747595733	1880.53745083075	1166.91142975615	148.344250268879	1786.55506110063	969.78095970646	148.784766418268	1876.53181402111	1225.73536791284	200.225790551206	1947.05933093986	841.542058553498	162.978926975215	1366.73407967726	1810.95404278386	216.029401363643	2695.1375505296	1083.54508957798	217.815360615045	1904.63738873951	1414.94791480725	146.048079900611	1960.84696063595	961.811481823077	206.234108559663	2095.52706539638	1423.74180794513	134.388296887365	2699.11960709867	925.874896413512	149.774209448794	2121.41245387589	1087.44334170119	154.326356912727	2020.22707013033
820.628254463184	158.278531003891	1366.79657758065	1336.06241113795	253.171723664883	1951.25228578886	911.439133036669	193.919714104178	1630.92961280616	1409.63754561625	159.278531003891	1978.8900485151	1017.28606200531	183.119874853948	1880.57452307949	1167.4772884939	148.297209540859	1787.50706826337	969.831052460739	148.734284163753	1876.19197825786	1225.92601166155	200.041506499712	1947.1478820499	841.30440235928	162.897336574172	1365.9932919519	1810.74684205323	215.856345924096	2694.41397937481	1083.3364075662	217.553252383689	1903.87180690115	1415.26503221128	146.012293976983	1961.53367393136	961.924687846535	205.994022524852	2094.01096036152	1424.00079183786	134.298443288156	2697.40078876695	925.900381605659	149.673127237637	2119.94496730895	1087.5261509962	154.229569979499	2018.86559695153
819.957802019118	158.203745636985	1365.46090523248	1335.06659638826	252.723063417893	1949.81713108063	910.579843239226	193.735067212275	1629.18786800343	1409.73472343218	159.203745636985	1979.50588422331	1017.18434579589	182.958848833749	1880.62701563856	1168.01957555608	148.256486089669	1788.8043956348	969.648470121947	148.673127237637	1875.6621850643	1226.0222638228	199.874166677451	1947.41526072332	841.00783705799	162.79798867075	1365.19058062851	1810.42622164515	215.679528953077	2693.68160858129	1082.9854110426	217.279482263103	1902.90107193361	1415.51090380145	145.969978745261	1962.30033739382	961.872801989555	205.748164162582	2092.4459439806	1424.14100646014	134.212713525701	2695.93050788975	925.772261252999	149.559229858837	2118.43892284764	1087.44301991379	154.118454155452	2017.45839324807
819.009470331359	158.140854403134	1363.35912267923	1333.71116382949	252.250628548604	1947.59594230266	909.388450210084	193.551873409415	1626.6046223768	1409.68251051057	159.140854403134	1979.56844331515	1016.92100484371	182.79571018864	1880.59414263291	1168.47998298581	148.218590669617	1790.22561955959	969.204334563478	148.599155143877	1874.8267643167	1226.00095835032	199.720611212496	1947.74503008626	840.675838393605	162.684877040245	1364.29893981905	1810.00106434039	215.499400155617	2692.86070335417	1082.49595667786	217	1901.69592344381	1415.63899595851	145.920836179388	1962.94200729709	961.626401168786	205.503254290177	2090.82412022206	1424.09949533936	134.138736624767	2694.6733199043	925.462513958468	149.440770141163	2116.90475575118	1087.18605717843	153.998672777103	2016.09417033147
817.865345092661	158.09091362322	1360.67636583767	1332.09741784996	251.764040860857	1944.78033283589	907.950614645776	193.375046138574	1623.39052432653	1409.51483593133	159.09091362322	1979.08834875967	1016.50813163007	182.632136587561	1880.39887788898	1168.8375107399	148.181031780064	1791.56905750634	968.519249330342	148.513944068774	1873.62884491866	1225.87476837204	199.578284359489	1948.03025372097	840.341698192144	162.563880111087	1363.30923717591	1809.50078720888	215.315891552596	2691.87851088527	1081.89249639033	216.720517736897	1900.26368255702	1415.62800663128	145.865123072014	1963.26696246853	961.188275090663	205.265715836247	2089.14015434638	1423.83943786031	134.080902728005	2693.52025901738	924.972039035732	149.326872762363	2115.34304219975	1086.76705015547	153.875568369401	2014.82276613248
