Light	Light	Light	Light	Light	Light	Light	Light	Light	Light	Light	Light	Light	Light	Light	Light	Light	Light	Light	Light	Light	Light	Light	Light	Light	Light	Light	Light	Light	Light	Light	Light	Light	Light	Light	Light	Light	Light	Light	Light	Light	Light	Light	Light	Light	Light	Light	Light
Optode1-730nm	Optode1-Ambient	Optode1-850nm	Optode2-730nm	Optode2-Ambient	Optode2-850nm	Optode3-730nm	Optode3-Ambient	Optode3-850nm	Optode4-730nm	Optode4-Ambient	Optode4-850nm	Optode5-730nm	Optode5-Ambient	Optode5-850nm	Optode6-730nm	Optode6-Ambient	Optode6-850nm	Optode7-730nm	Optode7-Ambient	Optode7-850nm	Optode8-730nm	Optode8-Ambient	Optode8-850nm	Optode9-730nm	Optode9-Ambient	Optode9-850nm	Optode10-730nm	Optode10-Ambient	Optode10-850nm	Optode11-730nm	Optode11-Ambient	Optode11-850nm	Optode12-730nm	Optode12-Ambient	Optode12-850nm	Optode13-730nm	Optode13-Ambient	Optode13-850nm	Optode14-730nm	Optode14-Ambient	Optode14-850nm	Optode15-730nm	Optode15-Ambient	Optode15-850nm	Optode16-730nm	Optode16-Ambient	Optode16-850nm
358.782809945335	139.809850145445	796.084508146172	1678.43418929952	176.957166277391	2522.89955663545	1058.12964628493	138	2212.49989815334	1822.49975016639	147	2649.79572426923	1649.30789516011	127	3646.69054267042	1521.47169099545	136	2244.6248081621	799.970713335048	125	1676.7255715417	1361.58881299052	145.766213449513	1996.71888006968	1217.67228209944	138.528780889037	2406.65557574487	1860.19569199543	160.345818498218	2716.70237056553	1402.23701316184	137.124861433113	2618.78362768074	1414.33634209195	138.254373118476	2006.26910679786	891.45337964807	126.175054304917	2252.47652799231	1517.87811320789	126.898917788843	2819.16547684698	309.02220380672	126	874.929669536887	2498.16650315343	134.577384851653	4103.95672478276
358.725603398725	139.839609542323	795.774011156739	1678.6101874538	176.919097271995	2522.89183099077	1057.78542796446	138	2212.15729770355	1822.30043965685	147	2649.62848304677	1648.3015266622	127	3643.52174014271	1520.95031298047	136	2243.81736581546	799.82694024863	125	1675.66557872721	1360.73605359161	145.723324916615	1994.96346955224	1216.84417569742	138.549593027421	2406.38286144982	1859.02425637554	160.332488048418	2716.16110588887	1401.65310090017	137.094153476796	2618.9468643918	1414.310819327	138.251428752581	2007.78691424082	890.926418527707	126.183485885345	2252.83321098178	1517.67636427159	126.917596325812	2820.69429913319	309.032104929732	126	875.417834779947	2498.17027226446	134.559579630076	4103.22001448755
358.632947960822	139.860472819763	795.449893033459	1678.49989633859	176.86259059813	2522.89571660139	1057.32034963769	138	2211.7988669778	1821.91383736322	147.001327222897	2649.57333233906	1646.82226796786	127	3639.39488396897	1520.26241865327	136	2242.8746766108	799.275264323036	125	1673.75573964991	1359.43445841302	145.656989040639	1992.62439593216	1215.7700605458	138.560534364057	2405.91808844429	1857.73707373227	160.309914077449	2715.47681037842	1401.16286758349	137.065807178367	2619.44715140985	1414.26995876606	138.250074074407	2009.485077951	890.515942722535	126.183485885345	2253.14567006603	1517.50445362188	126.938843073884	2821.90010479406	309.098362540836	126	876.003293280401	2498.46677479539	134.551175574497	4102.74728117975
358.512528932499	139.870381449723	795.139199475358	1678.12745688535	176.791936726549	2522.91526847385	1056.76217396397	138	2211.49531542178	1821.35440482508	147.004650252251	2649.67606389516	1644.98485495462	127	3634.52666302383	1519.44361388333	136	2241.85018694235	798.374662124455	125	1671.13700522147	1357.7461821354	145.577119519023	1989.81362309792	1214.52769526889	138.564426323289	2405.33388405035	1856.37407621296	160.280809486	2714.73598938729	1400.758634607	137.042050674087	2620.26855672955	1414.21537101231	138.250101529684	2011.3639410873	890.230407269369	126.175054304917	2253.46626248237	1517.3339338935	126.95927654881	2822.85500363552	309.231327104181	126	876.744908806443	2499.10029421881	134.556160821257	4102.59438398865
358.376958769253	139.870895399474	794.858968211242	1677.54620940698	176.713306514452	2522.92963213612	1056.14392132622	138	2211.28097213927	1820.6502055701	147.013077025505	2649.92976342127	1642.93560576457	127	3629.20275091558	1518.53061539864	136	2240.78118625319	797.219037092972	125	1668.02991339232	1355.76384454203	145.496478510937	1986.6823531265	1213.19771511317	138.565631574276	2404.72941022774	1854.96216445342	160.247988558491	2714.03834109469	1400.40917486394	137.023779221956	2621.35950333465	1414.13118909062	138.249722866226	2013.39106645827	890.056077855688	126.159183168863	2253.8329950766	1517.11627685867	126.976220778044	2823.62657952086	309.429229434585	126	877.670805346465	2500.04530812563	134.575100856948	4102.7935263908
358.238491613027	139.862061541382	794.61615896175	1676.8283166392	176.635482334591	2522.92105762005	1055.5008414183	138	2211.16523281015	1819.84630350606	147.028429474207	2650.31387698437	1640.83398489675	127	3623.74468036901	1517.56943074188	136	2239.70743107834	795.923947472362	125	1664.69524926923	1353.61015044209	145.425951300976	1983.41277276616	1211.86612729703	138.570450604697	2404.2155382967	1853.53887161252	160.216467329029	2713.48982602125	1400.08064727395	137.011749802608	2622.65116772644	1414.00368065651	138.248774306787	2015.51337947854	889.962906436474	126.137676600757	2254.25309726706	1516.79383113874	126.988250197392	2824.25078652099	309.680085716876	126	878.764693957066	2501.21395446618	134.607682248363	4103.34251413601
358.106981062294	139.844596121488	794.40507846813	1676.04516522542	176.566429740426	2522.8725846915	1054.86226275531	138	2211.13425241807	1818.99680246785	147.052473253798	2650.80641684854	1638.82744801784	127	3618.47326935313	1516.6138230697	136	2238.69181564588	794.60628122943	125	1661.39382812673	1351.42780392121	145.372246465804	1980.21104699175	1210.61376160656	138.583807246942	2403.90278082998	1852.15150194804	160.188934303745	2713.18927042614	1399.74115309845	137.004650252251	2624.07281586009	1413.8206800237	138.245423822156	2017.66760276498	889.912068528354	126.112832013765	2254.69761124524	1516.31572833057	126.995349747749	2824.71803406534	309.962616733618	126	879.963152137942	2502.48241440043	134.649362471361	4104.20168063766
357.987982998506	139.818439301131	794.214381626378	1675.25757557484	176.511156813857	2522.77926289629	1054.25037958217	138	2211.16559394119	1818.15974401144	147.084936148072	2651.40377774442	1637.02792483319	127.001327222897	3613.66939800645	1515.71714435714	136	2237.81946390829	793.36670748475	125	1658.34895571928	1349.3588266624	145.338622564971	1977.28632707876	1209.51077573873	138.607682248363	2403.86552385487	1850.85242027062	160.1669121072	2713.18777039788	1399.36829673664	137.001327222897	2625.53607230522	1413.57558284304	138.238351727076	2019.76622450893	889.860105118074	126.087053926439	2255.10500137821	1515.64045672729	126.998672777103	2824.97306721548	310.251035633442	126	881.166087631092	2503.70861791512	134.694084069147	4105.30067826345
357.881540282327	139.782111972475	794.031493704612	1674.50619487186	176.470433362668	2522.65763838261	1053.67805585189	138	2211.246472249	1817.38407403449	147.123127125378	2652.13116370307	1635.51128688978	127.004650252251	3609.54335180831	1514.93779749519	136	2237.18972450201	792.284158337495	125	1655.72065600651	1347.54033227791	145.322743700773	1974.83080339634	1208.61506268873	138.63932885847	2404.13074113366	1849.69217527713	160.149426403365	2713.47055522751	1398.95552070495	137	2626.93805008512	1413.26563844786	138.225943644269	2021.70152350449	889.764905391859	126.062484149013	2255.38699568523	1514.74276623141	127	2824.92911374251	310.517454645631	126	882.252604729488	2504.75587871876	134.73561138665	4106.54052095937
357.78554946679	139.734284163753	793.845575610972	1673.80853334702	176.440770141163	2522.52676709821	1053.14790222206	138	2211.36495521338	1816.69755014931	147.162239137273	2653.01230568185	1634.30913227088	127.011749802608	3606.23362126764	1514.32206812556	136	2236.90463120412	791.405485767113	125	1653.60340520133	1346.08202344467	145.318716108965	1973.00081089942	1207.9624332163	138.675144033456	2404.665011975	1848.70268145572	160.134859772532	2713.95511059134	1398.50546845143	137	2628.1653879783	1412.8864498962	138.208050855597	2023.35336261539	889.595443259412	126.04072345119	2255.45962598661	1513.62565299239	127	2824.5120834155	310.738725319974	126	883.107928256166	2505.52505522072	134.767132616112	4107.82378125384
357.695504767643	139.673127237637	793.64988392806	1673.16389160249	176.415669258532	2522.4146527048	1052.65758909252	138	2211.51855709282	1816.10112891373	147.196301052989	2654.06171553456	1633.41169512429	127.023779221956	3603.76353525605	1513.89550559944	136	2237.02257213811	790.7453346669	125	1652.01060500609	1345.04675583017	145.318708380821	1971.87805818117	1207.55954818824	138.706751138469	2405.37048539302	1847.88743521439	160.119874853948	2714.49573335631	1398.02874980567	137	2629.09499078819	1412.43162368309	138.18426689604	2024.60196430092	889.336595319532	126.023779221956	2255.26156504573	1512.31989237919	127	2823.69732440381	310.898449138818	126	883.643162275024	2505.96327947051	134.785959251402	4109.05326698571
357.608450841204	139.599155143877	793.443946043656	1672.56783567146	176.387760974986	2522.3566061922	1052.20457867172	138	2211.7143810949	1815.57609663326	147.21954192883	2655.27329988648	1632.78282586273	127.04072345119	3602.0935406701	1513.6577196909	136	2237.56059067139	790.293203213737	125	1650.9056544934	1344.44237752431	145.315022628523	1971.46442223062	1207.388777323	138.727878973545	2406.1128203107	1847.23301546152	160.102409434054	2714.93718652142	1397.54822682626	137	2629.6381379336	1411.90629248503	138.155948052887	2025.37171836017	888.997308188917	126.011749802608	2254.77811340958	1510.8985695079	127	2822.54379075835	310.989548903178	126	883.810963982263	2506.08676964847	134.792364441611	4110.14413352194
357.52450660047	139.515271291671	793.235928980553	1672.01556880496	176.349839362489	2522.39748819525	1051.79147844892	138	2211.96975851482	1815.08948939348	147.227794757601	2656.61994291104	1632.36659059176	127.061156926116	3601.12571098167	1513.57353219749	136	2238.47438697672	790.016399927986	125	1650.21293774109	1344.20927345653	145.302033516396	1971.66864768394	1207.40507022252	138.733936430341	2406.74315143593	1846.71060323123	160.082403674188	2715.14857082466	1397.09371223538	137	2629.75504798156	1411.33207834854	138.124861433113	2025.65390574686	888.610884343301	126.004650252251	2254.06028995079	1509.47305082664	127	2821.21915219771	311.014390848919	126	883.61433489764	2505.97549940961	134.788089447622	4111.04335318052
357.446747616311	139.426203510331	793.041525506259	1671.51536292091	176.297383264146	2522.5894012024	1051.42947591851	138	2212.31408576727	1814.61269145652	147.21954192883	2658.06652020051	1632.10291633802	127.082403674188	3600.74831111502	1513.58114355223	136	2239.67699181068	789.870361497902	125	1649.84569199882	1344.23246471655	145.27746373897	1972.32641196728	1207.54221109368	138.723586774476	2407.13310347927	1846.28838558573	160.061156926116	2715.06901474784	1396.69838153738	137	2629.48457227923	1410.75252445611	138.094153476797	2025.53062977695	888.23027469085	126.001327222897	2253.20727731769	1508.18034524952	127	2819.96298727293	310.982868647996	126	883.096942287211	2505.75207550338	134.776759078132	4111.70281065795
357.381977744279	139.339687930007	792.883796890448	1671.09107237343	176.226915533706	2523.00952052296	1051.14144091803	138	2212.79839123869	1814.1334486153	147.196301052989	2659.59562539047	1631.94663195144	127.101082211157	3600.88227346467	1513.61152439768	136	2241.06501805519	789.811824641028	125	1649.7338239968	1344.36884397573	145.242914065948	1973.23633308619	1207.7295833391	138.699104910428	2407.22375789293	1845.95404715053	160.04072345119	2714.7509755281	1396.40269822348	137	2628.96561200865	1410.24147319152	138.065807178367	2025.18572306946	887.915784918843	126	2252.36386582896	1507.16268504158	127	2819.0688500988	310.909160845833	126	882.336374971796	2505.55381725081	134.76131565714	4112.10852963521
357.337950922498	139.264925280777	792.791461717411	1670.77663218246	176.136800076635	2523.74261896114	1050.95709269821	138	2213.48765632655	1813.66382184262	147.16356636017	2661.21418253071	1631.8733106766	127.113897378801	3601.51332999644	1513.60146357916	136	2242.55952516435	789.806034729402	125	1649.84436943883	1344.47707360319	145.203483779124	1974.21083789918	1207.90245124037	138.665412754981	2407.03886949834	1845.72180406631	160.023779221956	2714.35840827369	1396.24650365695	137	2628.41925826133	1409.89085745874	138.042050674087	2024.87783418532	887.721044400677	126	2251.69698969918	1506.54317335922	127	2818.82929055859	310.807084027564	126	881.427006110834	2505.49841465784	134.742186687434	4112.27533213695
357.323376009723	139.210007328531	792.792715814291	1670.60984861104	176.025702370605	2524.86849177883	1050.90939905533	138	2214.44953682022	1813.24149682232	147.127777377629	2662.95740284145	1631.89211193036	127.118459717673	3602.69182627548	1513.52041920678	136	2244.12688245907	789.837774479457	125	1650.18297095112	1344.45881291866	145.165305267563	1975.12124877789	1208.01945547032	138.629504859443	2406.7045588148	1845.64064076852	160.011749802608	2714.17223736474	1396.26902466837	137	2628.14244794683	1409.79992747649	138.023779221956	2024.92123672318	887.682916043856	126	2251.37776237012	1506.40764557241	127	2819.50753764758	310.689527292496	126	880.470627539612	2505.66114474603	134.716906657237	4112.26066637809
357.344164458971	139.1815476297	792.912317907132	1670.62174682708	175.891359099024	2526.4545690412	1051.02490563913	138	2215.74910986482	1812.92033784462	147.09668595068	2664.8929832958	1632.03072752244	127.113897378801	3604.52334704567	1513.36524304034	136	2245.7969144856	789.906317862372	125	1650.79240639105	1344.27068143495	145.135939593248	1975.92932906699	1208.06453765345	138.596596222141	2406.43031873593	1845.77535718118	160.004650252251	2714.55140023696	1396.49421632316	137	2628.45533330091	1410.04956514162	138.011749802608	2025.63248012108	887.814154502938	126	2251.56887411842	1506.79343292172	127	2821.31465072261	310.566534556881	126	879.567625930725	2506.06667465604	134.681558818065	4112.15375734878
357.404811269244	139.181033679949	793.169713503357	1670.82565066484	175.73083155181	2528.54045787435	1051.31614627635	138	2217.4384446652	1812.75598313838	147.076252475754	2667.11199182591	1632.32854831988	127.101082211157	3607.12620211406	1513.16609614322	136	2247.64546151469	790.027556991529	125	1651.73270121628	1343.93165730488	145.119607655062	1976.68670007722	1208.05295142683	138.568459605414	2406.462774818	1846.19542595827	160.001327222897	2715.85467169684	1396.93267771775	137	2629.63641445182	1410.6859490126	138.004650252251	2027.26751118282	888.103430095716	126	2252.41179711747	1507.6905329238	127	2824.39854523881	310.446747616311	126	878.81551445111	2506.69602404903	134.633731009344	4112.06222069973
357.505981393779	139.208418606911	793.577663793108	1671.22130429922	175.542817386124	2531.14136166429	1051.77994781743	138	2219.55375827269	1812.79881186329	147.069152925397	2669.72243342115	1632.81954580511	127.082403674188	3610.59334179592	1512.96708554066	136	2249.77210646809	790.220928535556	125	1653.0597183087	1343.50109833875	145.118280432165	1977.50876246405	1208.0162521539	138.543607290278	2407.01848926634	1846.93146510934	160	2718.33526335578	1397.56614846767	137	2631.84076000917	1411.69907306615	138.001327222897	2029.94914610832	888.521592793052	126	2254.00705711106	1509.0423023726	127	2828.82539106033	310.338622564971	126	878.304061843175	2507.50047805421	134.571594593743	4112.07974908673
357.647787056125	139.258611478715	794.14317794634	1671.79894827126	175.326339757273	2534.25164267577	1052.39899427262	138	2222.1158470456	1813.08304010615	147.074233951621	2672.83445041017	1633.51199422921	127.061156926116	3614.95304031162	1512.80900190478	136	2252.26187129465	790.49955405608	125	1654.8047193927	1343.05172634555	145.132616563894	1978.53456229701	1207.98969733984	138.518073130364	2408.23537999366	1847.95609673043	160	2722.062571512	1398.34658052414	137	2635.05423686288	1413.01841030456	138	2033.62828609575	889.026506325558	126	2256.38662916657	1510.75270101216	127	2834.54197787785	310.250896996059	126	878.100425441512	2508.41739348949	134.49807293272	4112.26430895256
357.827854132652	139.323794076277	794.863843140365	1672.54201330469	175.085467904594	2537.8441462562	1053.14149342446	138	2225.11473890847	1813.61496597292	147.087053926439	2676.52223564748	1634.39564841118	127.042050674087	3620.14684738031	1512.72966852693	136	2255.15494840602	790.867875113321	125	1656.9612467204	1342.65477581409	145.159532940102	1979.88186765235	1208.00161406421	138.487650353009	2410.134746041	1849.17570551668	160	2726.87434503287	1399.20480241807	137	2639.07831630226	1414.52658624238	138	2038.07721989894	889.56827156439	126	2259.4888806813	1512.68824100456	127	2841.34329749143	310.190087803355	126	878.241366997591	2509.38010663029	134.420502882576	4112.62202263615
358.042304665861	139.395396437723	795.728402256462	1673.43139709893	174.827651892254	2541.89098368973	1053.96868273925	138	2228.51578959746	1814.37170131546	147.102409434054	2680.80689425306	1635.44211213399	127.028429474207	3626.02929657376	1512.75905505888	136	2258.43334214164	791.320465494871	125	1659.47910391237	1342.36797791018	145.196104612026	1981.6170658194	1208.06249290453	138.448917901102	2412.60507640366	1850.44145145736	160	2732.38211511007	1400.06159349507	137	2643.55802121634	1416.0794485774	138	2042.92425226344	890.098198066149	126	2263.1368740309	1514.69619490324	127	2848.84905300953	310.161114154774	126	878.716754000416	2510.34161410518	134.34714002095	4113.09643246123
358.285192539365	139.464295371345	796.709356743735	1674.44097044305	174.563897266542	2546.33661803667	1054.83719773143	138	2232.23518654029	1815.29866847806	147.115224601697	2685.61028004824	1636.60957733951	127.023499605216	3632.37462497122	1512.9155355656	136.001327222897	2262.01886748501	791.84106220566	125	1662.26745550971	1342.22817878448	145.237719639323	1983.74208185123	1208.16609189549	138.403639839184	2415.43568688184	1851.59007883838	160	2738.06094922385	1400.84487577057	137	2648.06935704557	1417.54159106368	138	2047.74694271766	890.571762517595	126	2267.05157545133	1516.61569145702	127	2856.53177646296	310.166743896509	126	879.471089609037	2511.2707977213	134.286947477323	4113.59061756314
358.546953037308	139.522373611375	797.761251754848	1675.52561018845	174.305626014291	2551.06942473157	1055.697581592	138	2236.12854842291	1816.30452693615	147.123109969924	2690.73084281919	1637.84015460516	127.028429474207	3638.89433846133	1513.19247267229	136.004650252251	2265.77661501497	792.40387910924	125	1665.20243429608	1342.24114637563	145.279482263103	1986.19406006412	1208.29179024029	138.356896658353	2418.36371692122	1852.47834314672	160	2743.3738884076	1401.50219963331	137	2652.21602875055	1418.80898051909	138	2052.16933333861	890.954753572286	126	2270.88602268135	1518.30069577299	127	2863.78362393393	310.207016914962	126	880.40905281298	2512.16332984309	134.244919520912	4113.99022233734
358.815622472906	139.562721804303	798.821427004756	1676.61673164097	174.063551413933	2555.90398488035	1056.49942365592	138	2239.99336032761	1817.27301821726	147.125647181409	2695.85362251203	1639.06619016796	127.042050674087	3645.25235119447	1513.55661906027	136.011749802608	2269.52269246607	792.978203140176	125	1668.13654397536	1342.38251924319	145.316859967263	1988.8492267943	1208.41270127037	138.314843343015	2421.12862979096	1853.01544169483	160	2747.88828509968	1402.00791106505	137	2655.70976117996	1419.82328140227	138	2055.93874894497	891.224508031683	126	2274.28183003701	1519.6373517239	127	2870.02086459551	310.280989008722	126	881.417731993809	2513.02642536047	134.222708390351	4114.1844600241
359.078368354236	139.582755089018	799.81313048321	1677.63086690628	173.845205446723	2560.55228677623	1057.19578328267	138	2243.57470062279	1818.08267820099	147.124861433113	2700.57192455459	1640.20244113466	127.061156926116	3651.08270681034	1513.93273985568	136.023779221956	2273.02923460981	793.524553070828	125	1670.9107234328	1342.58622802857	145.344423992166	1991.53389865288	1208.49704116742	138.286947477323	2423.51982608478	1853.16137691425	160	2751.35372345374	1402.35207229146	137	2658.40650763787	1420.56122814138	138	2058.95565914059	891.370871225728	126	2276.93760167563	1520.55317930829	127	2874.79877635505	310.385756768591	126	882.39019758828	2513.86799778663	134.216560804629	4114.09457125245
359.321689505022	139.582843002396	800.658220777711	1678.48492077578	173.654624748621	2564.65182632661	1057.75165232647	138	2246.60161355386	1818.6288119484	147.123127125378	2704.45520318378	1641.14937625859	127.082403674188	3655.97955042447	1514.2025583588	136.04072345119	2276.0155756607	793.996978236598	125	1673.35062583854	1342.74267765195	145.358540190262	1994.01468198015	1208.50935060126	138.279870644641	2425.38808754015	1852.91672256111	160	2753.69422834368	1402.53026924811	137	2660.2838438641	1421.01651720694	138	2061.23284984746	891.392083915268	126.001327222897	2278.66309995382	1521.01829549743	127	2877.89031764649	310.517022616918	126	883.2472121111	2514.6777688125	134.219917892514	4113.69748954327
359.53551268808	139.566306691518	801.287277164579	1679.12143940445	173.492816454895	2567.81741973371	1058.15060253999	138	2248.82860563675	1818.84947415093	147.122313852232	2707.1286578033	1641.80415647001	127.101082211157	3659.54201283665	1514.22211927865	136.061156926116	2278.1770143879	794.347113690192	125	1675.28686964457	1342.70931988981	145.356785252304	1996.01977006611	1208.40552672799	138.295615119076	2426.65569260528	1852.28654551124	160	2754.96909489068	1402.52725985413	137	2661.3991680051	1421.17378871568	138	2062.84139086902	891.293717667253	126.004650252251	2279.3960705896	1521.03971721736	127	2879.30184328943	310.666184728685	126	883.94366730885	2515.4165150669	134.225607317355	4113.02171746143
359.714431496951	139.540551321868	801.653958056977	1679.52845013408	173.358742430659	2569.7299086514	1058.39861528016	138	2250.08225711572	1818.7383114846	147.123127125378	2708.3489690152	1642.07960442803	127.113897378801	3661.42766662214	1513.85181412202	136.082403674188	2279.22434821237	794.52781277864	125	1676.56975124298	1342.33323166117	145.338539992618	1997.25989158181	1208.13061802501	138.334493503381	2427.28072208293	1851.25993529578	160	2755.27283973836	1402.31398723373	137	2661.81506367749	1421.00118149325	138	2063.82986904452	891.084186633639	126.011749802608	2279.19565244192	1520.65227015486	127	2879.24236292554	310.819940109372	126	884.464586288654	2516.01494618867	134.228056615462	4112.14412461435
359.85583007446	139.51220154867	801.743602398822	1679.74097276296	173.250446563322	2570.24400171535	1058.52172022747	138	2250.30873062305	1818.34211106886	147.124861433113	2708.07663707513	1641.92610178297	127.118459717673	3661.42294301273	1512.99402433566	136.101082211157	2278.9497310304	794.502978876748	125	1677.09191127345	1341.48161773467	145.305263825198	1997.47447458167	1207.61693759206	138.388825806171	2427.23343188283	1849.79864175591	160	2754.66540707571	1401.8515477895	137	2661.56087883489	1420.45468652502	138	2064.1925443759	890.775523272207	126.023779221956	2278.20445737631	1519.91136969413	127	2878.04334434569	310.961199697459	126	884.810196194994	2516.38249386451	134.224642613818	4111.16212959555
359.959872474562	139.487265919814	801.576104398781	1679.83346074312	173.165960847987	2569.43944572466	1058.55834490115	138	2249.59102606566	1817.75016391258	147.125647181409	2706.48961442448	1641.35418999254	127.113897378801	3659.54549086186	1511.62852910592	136.113897378801	2277.30744029276	794.258052623884	125	1676.82369928579	1340.07886416466	145.261680516295	1996.49653081853	1206.79856681638	138.449811846716	2426.48976377446	1847.86365822312	159.998672777103	2753.15400251631	1401.11270589487	137	2660.63991034198	1419.50941879636	138	2063.88574274545	890.3835643288	126.04072345119	2276.59875002227	1518.88746114799	127	2876.0643853777	311.070809664417	126	884.980337775744	2516.42549327578	134.215777756107	4110.16913662063
360.028942224181	139.47086663995	801.204130660456	1679.88769866276	173.102663425828	2567.6305683737	1058.54983717215	138	2248.14421996177	1817.06705278584	147.123109969924	2703.96360297085	1640.43693956628	127.101082211157	3656.06952921567	1509.82724514527	136.118459717673	2274.45135239074	793.803909506683	125	1675.82580416605	1338.12918768186	145.213242582449	1994.29996812132	1205.62992173827	138.506756605039	2425.0292998323	1845.45257187341	159.995349747749	2750.70980626581	1400.10700965929	137	2659.04774084335	1418.19178712148	138	2062.86850565588	889.929787050593	126.061156926116	2274.55595755638	1517.66578716685	127	2873.6322414402	311.131601701667	126	884.966099546315	2516.07178608975	134.20428981136	4109.25108900016
360.064300432748	139.462364622648	800.698034408805	1679.9630551272	173.058450728946	2565.28400069556	1058.52919279085	138	2246.26610901491	1816.38560317018	147.115224601697	2700.9824882005	1639.304397064	127.082403674188	3651.51230453579	1507.74519283013	136.113897378801	2270.73227749843	793.179949067203	125	1674.25226952983	1335.72539404073	145.167060205521	1991.02986021147	1204.11019533483	138.552047132702	2422.86928694869	1842.63929927092	159.986922974495	2747.34867545043	1398.8983519587	137	2656.83741949811	1416.59980277709	138	2061.17567592565	889.445675395643	126.082403674188	2272.22834550241	1516.34587949322	127	2870.99412224623	311.132387449963	126	884.749195302832	2515.29521092565	134.193236822583	4108.46594634044
360.066413403941	139.460775901029	800.131709554428	1680.07383991837	173.029756697104	2562.90367201334	1058.51647107885	138	2244.27924744764	1815.76827211728	147.101082211157	2698.03637480125	1638.1152319806	127.061156926116	3646.52642336003	1505.5858375023	136.101082211157	2266.6227412286	792.448321180455	125	1672.3203397317	1333.0352028735	145.130309851513	1986.98096633413	1202.29868719562	138.580702506354	2420.09667991625	1839.58996801839	159.970243302896	2743.20635020106	1397.60127121473	137	2654.15500151339	1414.89854201753	138	2058.95793854891	888.970199992205	126.102409434054	2269.7477566231	1515.03842088613	127	2868.33247526839	311.07211973186	126	884.316447663741	2514.12984498714	134.187065965386	4107.85602454298
360.034902543875	139.462450166518	799.570052130872	1680.1748182631	173.013077025505	2560.90190374344	1058.5112110486	138	2242.46695504287	1815.22752643027	147.082403674188	2695.52011971271	1637.02263755762	127.04072345119	3641.75870783082	1503.54805853086	136.082403674188	2262.6077446489	791.682328151419	125	1670.26893139985	1330.26342330338	145.106553347233	1982.53820282194	1200.32028504373	138.592770583892	2416.88465372038	1836.55503232273	159.942876493951	2738.57097827713	1396.36989763631	137.001327222897	2651.24721806967	1413.29154737658	138	2056.47874651465	888.547949953922	126.119874853948	2267.23897719803	1513.85776465565	127	2865.78765901216	310.958760699174	126	883.673556107266	2512.66908110354	134.187700556448	4107.44811993039
359.970510501783	139.4647967653	799.057734731169	1680.18092264448	173.004650252251	2559.50579626567	1058.50114620012	138	2241.01842631323	1814.73412773945	147.061156926116	2693.65809891946	1636.13889909493	127.023779221956	3637.70708397874	1501.77674708454	136.061156926116	2259.06551981855	790.951507740069	125	1668.30598504612	1327.60605571582	145.09668595068	1978.09062742024	1198.33962996632	138.591692753111	2413.48068847842	1833.80715270811	159.90331404932	2733.85766873892	1395.35344733222	137.005977475148	2648.42190715018	1411.96584504312	138	2054.06554224925	888.224685823823	126.134859772532	2264.83686527703	1512.91251397779	127	2863.50071866948	310.810972220655	126	882.859101961227	2511.05603126838	134.196039416324	4107.25969594562
359.87529165995	139.465164295418	798.618326850014	1679.99573970113	173.001327222897	2558.74576627284	1058.46709025599	138	2240.02020633247	1814.23120079777	147.04072345119	2692.50044912179	1635.51589490704	127.011749802608	3634.63747568821	1500.33136188911	136.04072345119	2256.1922943016	790.307423787098	125	1666.57663017176	1325.20767725947	145.098803729047	1973.95237917064	1196.53025956444	138.583361551806	2410.16555587625	1831.58289797137	159.853093652666	2729.52272867962	1394.66755163934	137.016400054859	2645.98031840628	1411.05119382286	138	2052.03193454738	888.038038757704	126.149426403365	2262.69304822682	1512.28766605861	127	2861.62670360822	310.652156443968	126	881.945771758618	2509.45242125265	134.210583329481	4107.29714494782
359.755530911825	139.463256198754	798.257744642948	1679.55037177744	173.001327222897	2558.48731092003	1058.39566018089	138	2239.46078327347	1813.65933351613	147.023779221956	2691.95138493752	1635.1503822737	127.004650252251	3632.56590045463	1499.19146453312	136.023779221956	2253.98276233715	789.782931375369	125	1665.14418215356	1323.14663428439	145.107059686304	1970.30500520126	1195.03167028898	138.574844165399	2407.19867196862	1830.02169448184	159.797037411537	2725.9627403836	1394.36470757967	137.036856247461	2644.15586060944	1410.58965506898	138	2050.61043733658	888.007753003852	126.165584884303	2260.9568320985	1512.02694711198	127	2860.31564822534	310.50633283832	126	881.029640254177	2508.00723123147	134.230186811682	4107.54677399417
359.620386784953	139.459876393193	797.973714121497	1678.83435085963	173.005977475148	2558.54504993379	1058.28897062462	138	2239.28132882672	1812.9853396653	147.011749802608	2691.85855065034	1635.00107253446	127.001327222897	3631.30801849806	1498.28231050961	136.011749802608	2252.27250202625	789.388134752317	125	1663.99310572577	1321.43320095047	145.115224601697	1967.18684406281	1193.91848687856	138.572845230457	2404.75371913901	1829.13242196509	159.742542020895	2723.40714817206	1394.42685458637	137.069152925397	2643.04797480112	1410.53464366993	138	2049.89405194399	888.133965952423	126.184284051494	2259.7492701863	1512.12472093784	127	2859.67134687817	310.394283873077	126	880.213145364236	2506.84192850442	134.251947509506	4107.97417478499
359.481493592353	139.457714370397	797.759607304685	1677.89898874492	173.019054500653	2558.75267112359	1058.16490639683	138	2239.4028370822	1812.21063947118	147.004650252251	2692.07315627332	1635.0077472588	127	3630.57893340044	1497.51020602318	136.004650252251	2250.83109391233	789.117273665604	125	1663.05938301293	1320.03380608905	145.118459717673	1964.53606371512	1193.18871745597	138.582291449169	2402.892664447	1828.80629223445	159.698054396982	2721.88267233258	1394.77516308178	137.113630179914	2642.6151500012	1410.7722702699	138	2049.83311500019	888.39018840181	126.206044749318	2259.12767065888	1512.51425835764	127	2859.69278848782	310.330398032114	126	879.581755751835	2506.02229164058	134.275185256861	4108.51791654198
359.350651984319	139.458689122281	797.602829854986	1676.84075430327	173.047483974859	2558.99974099255	1058.05232706599	138	2239.73574864769	1811.37166339327	147.001327222897	2692.47600758592	1635.11508653263	127	3630.08801627454	1496.799109707	136.001327222897	2249.44936088884	788.955113953132	125	1662.2584698152	1318.90012413841	145.1138973788	1962.2476324569	1192.77445871621	138.606469131289	2401.56357295879	1828.85715869558	159.669795808345	2721.22805487977	1395.29569557194	137.167339822261	2642.6953561136	1411.15680054632	138	2050.26564119758	888.73005634055	126.228859588786	2259.05905177748	1513.0780981714	127	2860.23456280199	310.321430143398	126	879.186835210413	2505.57049751915	134.300444656835	4109.09185722293
359.237540353814	139.464007888519	797.485051606935	1675.77032690629	173.09863000576	2559.241638003	1057.980419729	138	2240.19108230005	1810.52366821104	147	2692.9902987519	1635.27665192369	127	3629.58603209113	1496.10148752157	136	2247.99161968494	788.881233749917	125	1661.50514150251	1317.98583402712	145.101082211157	1960.22360735044	1192.56640453169	138.64442786477	2400.6244191647	1829.07017696993	159.660583217222	2721.15246935805	1395.86342988409	137.224209336535	2643.04849280337	1411.53957653841	138	2050.96133456854	889.094727429289	126.251835837418	2259.42049744087	1513.66267622285	127	2861.01291779613	310.367521478462	126	879.040235886304	2505.46233543452	134.329153678208	4109.60352201829
359.148037129269	139.474433596716	797.375018425303	1674.78128093525	173.178915901582	2559.43276890485	1057.96944272298	138	2240.64960590493	1809.72354309943	147	2693.52838984688	1635.45040747109	127.001327222897	3628.88136204116	1495.3890502151	136	2246.40234053631	788.867855180155	125	1660.72686953171	1317.24569389865	145.082403674188	1958.39584497265	1192.44136074581	138.694194700201	2399.88840856508	1829.24458643916	159.667511951582	2721.32040900217	1396.36167078074	137.276136516073	2643.40811133044	1411.79101960894	138	2051.67911524048	889.420566454553	126.272536373289	2260.02025828971	1514.09918203561	127	2861.65349638175	310.462886034505	126	879.113284087791	2505.62697688888	134.361601582951	4109.96351196104
359.083557173799	139.488188699124	797.229685776427	1673.91631010623	173.288966001455	2559.47720706282	1058.01955621656	138	2240.95618329958	1809.00195729633	147	2693.96399000931	1635.58951664147	127.004650252251	3627.8205178018	1494.63399792907	135.998672777103	2244.67089393802	788.881427800181	125	1659.86221251692	1316.62552759277	145.059829703219	1956.71709233465	1192.294267516	138.749898470316	2399.16629014143	1829.23435566396	159.682356984215	2721.4343476935	1396.70636495529	137.314760770662	2643.53391909108	1411.81923187321	138	2052.2147896407	889.655586011481	126.290807825419	2260.6532122137	1514.24129868287	127	2861.8059921452	310.596972185825	126	879.348572786526	2505.95971954549	134.396985159342	4110.11931303915
359.042833722609	139.501388721164	797.001478791184	1673.16888577534	173.422775664521	2559.20643841771	1058.11350346686	138	2240.93083132409	1808.35618579933	147	2694.11347539657	1635.63314275777	127.011749802608	3626.24511682918	1493.78490629904	135.995349747749	2242.76952472822	788.877550776374	125	1658.84926953985	1316.03638628995	145.036073198939	1955.11132768305	1192.04094579256	138.803353913373	2398.29443320926	1828.94043195858	159.693560712563	2721.28277700124	1396.84135104153	137.33343930763	2643.24507397766	1411.56723074363	138	2052.43488353479	889.766973654021	126.305893213177	2261.15346543891	1513.99805066922	127	2861.24973298883	310.75580518754	126	879.675499366917	2506.32628624578	134.431988393587	4110.06365881092
359.022377530006	139.510882538143	796.648396449662	1672.48969480438	173.566603463712	2558.39829171432	1058.21795841029	138	2240.39889537365	1807.73914225808	147	2693.75016220694	1635.50998765301	127.023779221956	3623.9964559843	1492.76106748658	135.988250197392	2240.61761981962	788.805757367343	125	1657.62861805293	1315.3472128979	145.012029419348	1953.44451272887	1191.62481273005	138.847395794258	2397.15709779815	1828.31226626	159.689273300721	2720.77619140044	1396.74454390487	137.328876968758	2642.4481775137	1411.02180194508	138	2052.30266296145	889.753684466502	126.318362813331	2261.44546217089	1513.36098088328	127	2859.99492553999	310.922437456803	126	880.023667264835	2506.57815556196	134.461233840714	4109.83549321788
359.017727277756	139.514397629997	796.15364966022	1671.81552233373	173.70120924447	2556.85677478687	1058.29830968765	138	2239.25159588427	1807.07399403164	147	2692.66760274545	1635.15806030578	127.04072345119	3620.92135759146	1491.46547448261	135.976220778044	2238.066995889	788.619756049134	125	1656.14241345444	1314.39489532622	144.987970580652	1951.50193026472	1191.01147508804	138.873557352216	2395.6774718533	1827.33776289976	159.660579268879	2719.92351936371	1396.42521862712	137.301945603018	2641.13082385762	1410.21170878636	138	2051.86854856256	889.648475518421	126.329578959534	2261.55740492778	1512.42391811194	127	2858.30337499788	311.080009186371	126	880.327363802067	2506.57478810551	134.480859604716	4109.49384674161
359.02643366775	139.510454823082	795.534038278898	1671.0941328395	173.807204099589	2554.49648907635	1058.32555306992	138.001327222897	2237.49257977506	1806.26605711054	147.001327222897	2690.73895777132	1634.542510378	127.061156926116	3616.92989692564	1489.80980833966	135.95927654881	2234.94430962187	788.285779270236	125	1654.35220808045	1313.0097799232	144.963926801061	1949.02078038787	1190.17917150923	138.877046597908	2393.82193497652	1826.02146195396	159.605301535137	2718.80985975442	1395.91301323121	137.257457979105	2639.3594812418	1409.20160542061	138	2051.26206324003	889.509577046298	126.338904881485	2261.61127374983	1511.36395317982	127	2856.64532360874	311.210770121937	126	880.533716401007	2506.18988221397	134.485781655511	4109.08874269494
359.045373703441	139.501909911825	794.842763067576	1670.3064582408	173.8678299205	2551.4049668189	1058.28877429453	138.004650252251	2235.26198941171	1805.22788041642	147.004650252251	2687.96779947338	1633.680318499	127.082403674188	3612.05335045092	1487.75465525685	135.938843073884	2231.11300777303	787.798769797686	125	1652.26194343738	1311.06450735015	144.940170296781	1945.75257455784	1189.12415786972	138.856613122982	2391.58718627671	1824.39456211089	159.527023863626	2717.54460234006	1395.26484533063	137.202962588463	2637.24913148991	1408.09557629989	138	2050.65006481963	889.411176635968	126.345201528092	2261.77458863582	1510.41641694833	127	2855.58970519507	311.299177585252	126	880.597899590549	2505.3311438391	134.474700795602	4108.63545986271
359.071579505828	139.492471421257	794.162347922872	1669.46647672698	173.874929470857	2547.86251713546	1058.19689158892	138.011749802608	2232.83020168507	1803.89698164779	147.011749802608	2684.5203930463	1632.64982914128	127.101082211157	3606.46909251925	1485.33337184103	135.917596325812	2226.54091161235	787.186831296743	125	1649.9269946142	1308.51343458176	144.917596325812	1941.539813139	1187.86521529368	138.813605677087	2389.00758116811	1822.51268959759	159.436119888913	2716.23422262989	1394.55763243886	137.146906347334	2634.94962738379	1407.02238826692	138	2050.20200055666	889.425171421708	126.345727456354	2262.20326708084	1509.83001758168	127	2855.66241493587	311.332718310308	126	880.478014243526	2503.94563721548	134.449464113304	4108.10150971906
359.101532643894	139.487878152339	793.582178743558	1668.62138570664	173.829656098649	2544.29915735269	1058.07738179187	138.023779221956	2230.53462270142	1802.26317766449	147.023779221956	2680.70117213731	1631.58241560516	127.113897378801	3600.4943808366	1482.66261991434	135.898917788843	2221.33724194098	786.511520409314	125	1647.45543800542	1305.42417792712	144.898917788843	1936.38362776206	1186.45282467589	138.754740356356	2386.15153324296	1820.46806204648	159.346001732068	2714.95976297949	1393.88552854093	137.098013173577	2632.61117306811	1406.12098698265	138	2050.04233281774	889.606453467373	126.337024194845	2262.98717803566	1509.81445714148	127	2857.20665828867	311.302808727656	126	880.136122216607	2502.0332955639	134.413126484826	4107.42225958743
359.128728636842	139.493243394961	793.171710231627	1667.84207974281	173.74193269566	2541.24367881641	1057.96537102461	138.04072345119	2228.70412917539	1800.38641603311	147.039396228293	2676.92686126297	1630.64190235861	127.118459717673	3594.54356706941	1479.93227077168	135.8861026212	2215.75722780527	785.858592654537	125	1644.99770817832	1301.99259121353	144.886102621199	1930.49004818508	1184.9847472081	138.687007236465	2383.13772116304	1818.40460963687	159.26983703175	2713.791390511	1393.35903871689	137.061773758299	2630.37467717777	1405.52452347484	138	2050.22420330624	889.981731989448	126.316175906937	2264.11502308939	1510.50223378762	126.998672777103	2860.28788511967	311.207701488338	126	879.539344050486	2499.65568926663	134.372415381916	4106.52378090726
359.143970384916	139.51159009114	792.956950534165	1667.20349734098	173.629087612725	2539.1994791777	1057.88942095781	138.061156926116	2227.56879305436	1798.38953620222	147.056506673866	2673.63065300907	1629.99390943294	127.113897378801	3589.03980806584	1477.37570079887	135.881540282327	2210.15509133347	785.321184155091	125	1642.71462917092	1298.52119028427	144.881540282327	1924.24806162467	1183.60096838411	138.620736556192	2380.12656755301	1816.50652917941	159.216293605742	2712.78779961485	1393.09046484596	137.041506499712	2628.35063722178	1405.33498672927	138	2050.71138629669	890.5501978084	126.282026077843	2265.4787258934	1511.92388259	126.994022524852	2864.67770847647	311.052649884374	126	878.670456014765	2496.9425288821	134.332924706563	4105.36873321522
359.136435187768	139.543977741366	792.905063811213	1666.77795830781	173.511156813857	2538.55974901362	1057.86516319692	138.082403674188	2227.19718961227	1796.45807843034	147.07065387158	2671.19297352959	1629.77266962923	127.101082211157	3584.32412311641	1475.22575169862	135.8861026212	2204.906340466	784.982310028548	125	1640.74205720631	1295.37584650815	144.886102621199	1918.16520320524	1182.46871600544	138.563353092167	2377.31253583388	1814.97737804101	159.188412847046	2712.00953348925	1393.17594579051	137.036856247461	2626.61493115763	1405.60727127719	138	2051.39074646669	891.284360573088	126.237024504179	2266.89836196237	1514.00178453939	126.983599945141	2869.89210900622	310.853290093628	126	877.541252798904	2494.08617143558	134.300461812289	4103.9855731607
359.09591610927	139.587226055761	792.928437423045	1666.62860489347	173.407775490368	2539.51928020818	1057.89340590934	138.101082211157	2227.48440552807	1794.81738972266	147.077302989201	2669.87275471989	1630.07008947481	127.082403674188	3580.61049547753	1473.68661279457	135.898917788843	2200.34220544289	784.902315831709	125	1639.16973095221	1292.93115339616	144.898917788843	1912.77426349879	1181.75330707314	138.52158495579	2374.88944867311	1814.00151117037	159.184639384955	2711.49249798104	1393.68209141242	137.045373703441	2625.19750431025	1406.33904096521	138	2052.09285587223	892.137390149186	126.186018359229	2268.16636335341	1516.55893497936	126.964470975436	2875.28406780582	310.630902840264	126	876.200634163495	2491.31464226233	134.277717730745	4102.48498382259
359.014816940303	139.637766329296	792.906596829163	1666.79158307868	173.334319780095	2542.00287996841	1057.96562036801	138.113897378801	2228.18553643499	1793.68792766437	147.073173927611	2669.75198914286	1630.91977283546	127.061156926116	3577.97470948579	1472.89897983393	135.917596325812	2196.70257754559	785.10745176154	125	1638.0286012783	1291.49493773295	144.917596325812	1908.52621815107	1181.57788886367	138.498168456778	2373.0123629257	1813.6932486637	159.19875905782	2711.21160714557	1394.6254019498	137.062484149013	2624.08085176472	1407.47345622816	138	2052.63182182978	893.053499352177	126.134876927986	2269.09727885476	1519.3504336099	126.935497326854	2880.17498288954	310.413217053136	126	874.738498567917	2488.85452608545	134.263964373058	4101.05832361503
358.891891630541	139.688200069599	792.722410772703	1667.26376362761	173.299319674335	2545.66839643941	1058.07752289311	138.118459717673	2229.00292386238	1793.24410130111	147.057302791557	2670.73723218631	1632.30163737894	127.04072345119	3576.39440282617	1472.92668927834	135.938843073884	2194.12594487903	785.587402343925	125	1637.30177035313	1291.24701432186	144.938843073884	1905.70812755803	1181.99599638855	138.492033406374	2371.76205189833	1814.06943376971	159.224568144765	2711.05373368885	1395.9771007197	137.083730897085	2623.21012485807	1408.92049050673	138	2052.85049957181	893.969427760096	126.089586400323	2269.55539558232	1522.09440369465	126.898119622694	2883.95850447501	310.226399876442	126	873.270706187189	2486.87517247277	134.257813312566	4099.92379539066
358.734813220501	139.733856448692	792.295239035273	1667.99021708936	173.306095453575	2549.94078724102	1058.23147840144	138.113897378801	2229.66218162896	1793.56515097512	147.031493704612	2672.57904212257	1634.14792124888	127.023779221956	3575.79810821871	1473.74999765469	135.95927654881	2192.66178112182	786.301108532931	125	1636.93999497496	1292.20061090374	144.95927654881	1904.39888311713	1182.96834197135	138.498850419021	2371.13402682464	1815.03722838429	159.257813312566	2710.83304397336	1397.65883612314	137.105732463407	2622.53085678504	1410.5741829664	138	2052.67547372888	894.823929385744	126.055127699592	2269.48031018723	1524.51650193377	126.856439399695	2886.20398538767	310.09339068339	126	871.925983977882	2485.4610190671	134.257813312566	4099.29548104771
358.558890057154	139.76888755407	791.607994431196	1668.86671178544	173.351904738163	2554.12723252889	1058.44297191905	138.101082211157	2229.9961139067	1794.61961319027	147	2674.94880187114	1636.35656441765	127.011749802608	3576.12624900243	1475.2729641131	135.976220778044	2192.30156636228	787.183353036766	125	1636.89136200302	1294.19563163576	144.976220778044	1904.47913915375	1184.37232964682	138.512878703738	2371.04151653999	1816.41451632874	159.295882317962	2710.31892350194	1399.56123599613	137.125647181409	2622.00337567102	1412.33685101563	138	2052.13587305388	895.56238735257	126.033079726457	2268.86458178827	1526.38782860596	126.816514114655	2886.67411872958	310.028900428098	126	870.815444464277	2484.60234805471	134.263964373058	4099.29357098434
358.385756768591	139.79184325095	790.711538458484	1669.74466906098	173.432981189455	2557.51887377006	1058.73246815713	138.082403674188	2229.96468602706	1796.25832323696	146.968506295388	2677.49183552783	1638.79318394794	127.004650252251	3577.32786236666	1477.32670766777	135.988250197392	2192.98849259218	788.156013607728	125	1637.11130783156	1296.92386180749	144.988250197392	1905.67059906533	1186.02048178784	138.527046581302	2371.35436443934	1817.96406231449	159.339600016629	2709.31181914206	1401.55325522141	137.142238939629	2621.63555840778	1414.12366198655	138	2051.37354840709	896.137100849066	126.024826828113	2267.74984991991	1527.54532385174	126.785020410043	2885.34131685816	310.037065343491	126	870.018102820656	2484.18948737021	134.277717730745	4099.91979731304
358.239121568486	139.803960583676	789.709814766351	1670.45103436923	173.544760789888	2559.49532136568	1059.11738849114	138.061156926116	2229.63244454652	1798.24271157444	146.942697208443	2679.87762670391	1641.30407540998	127.001327222897	3579.3449296322	1479.69067164421	135.995349747749	2194.62066732858	789.135059782731	125	1637.56790131579	1299.98345754689	144.995349747749	1907.60091034978	1187.6947073255	138.534398223549	2371.93007685517	1819.43489712015	159.389095053515	2707.69712951448	1403.4964481325	137.15462082999	2621.47613100801	1415.85869361853	138	2050.60438364184	896.511469074817	126.028429474207	2266.2042772212	1527.91101920115	126.767642903526	2882.36105258382	310.111719449119	126	869.567932763817	2484.05220828675	134.301789035186	4101.04308798893
358.139715646043	139.807218417328	788.730983274865	1670.81415432467	173.680856038031	2559.61858996986	1059.6008394978	138.04072345119	2229.12310706558	1800.28705493979	146.926826072389	2681.84449238903	1643.72251375484	127	3582.06161102377	1482.11040210527	135.998672777103	2197.0385688102	790.040055542915	125	1638.23322601652	1302.94540852701	144.998672777103	1909.87237115859	1189.17852036697	138.53080038463	2372.64270760871	1820.59552368844	159.444899202753	2705.48470005276	1405.25388622631	137.162239137273	2621.59333513121	1417.46305578252	138	2050.05932988398	896.663983190627	126.042050674087	2264.32727736652	1527.49459998519	126.767642903526	2878.0523613732	310.237633829414	126	869.460578855618	2484.00007000227	134.338902181711	4102.45123543561
358.100769850487	139.805886387257	787.890871105453	1670.69952236081	173.834315861463	2557.67826781057	1060.16711935214	138.023779221956	2228.54522921623	1802.11692133048	146.922697010799	2683.20741187798	1645.87901305383	127	3585.26641179734	1484.32333111283	136	2200.0130606506	790.796987561069	125	1639.06984679575	1305.41723543783	145	1912.11736135179	1190.28314234001	138.513948875948	2373.39427256188	1821.25731515227	159.506229586118	2702.80607300184	1406.69583158497	137.164807348377	2622.0344339513	1418.84243092988	138	2049.9178339405	896.586826942109	126.061156926116	2262.23435107262	1526.37913526024	126.785020410043	2872.84202160329	310.392673085098	126	869.657549725182	2483.85928732148	134.387488213878	4103.88871975619
358.125224189685	139.80343708915	787.26654692716	1670.03050307972	173.995349747749	2553.72409053772	1060.77912296617	138.011749802608	2227.95314379737	1803.51337435293	146.92934612842	2683.88137684452	1647.62365954669	127	3588.65643038778	1486.09692349221	136	2203.2593641338	791.34703873569	125	1640.02509034033	1307.10832643676	145	1914.0505407824	1190.87022210391	138.485776452429	2374.10801620239	1821.29700889031	159.570979661445	2699.8816984397	1407.71517339209	137.162239137273	2622.79078028461	1419.89173056388	138	2050.25590390203	896.290179571717	126.083730897085	2260.07513684006	1524.70643895613	126.816514114655	2867.24336488329	310.553445113522	126	870.105813704991	2483.51230670836	134.445332480036	4105.14751142354
358.207815081111	139.801166473127	786.881971519515	1668.82125889799	174.152607113031	2548.06061189217	1061.38877883626	138.004650252251	2227.33057302433	1804.35545766295	146.943493326134	2683.87305128966	1648.83993289197	127	3591.86274064591	1487.25224935547	136	2206.4581080122	791.644268802969	125	1641.02211070262	1307.8539345073	145	1915.48251255599	1190.85450165242	138.449720874426	2374.6976857023	1820.65452571946	159.636097266889	2696.93935279879	1408.23193601953	137.15462082999	2623.75501744326	1420.50475325723	138	2051.01012392141	895.797322928398	126.105732463407	2258.01253327034	1522.64595165058	126.856439399695	2861.7713140636	310.69795697304	126	870.746088103443	2482.91148384192	134.505540013196	4106.10025441038
358.334270936007	139.800093379947	786.71097484966	1667.17262956948	174.295364740013	2541.21478119968	1061.94662885134	138.001327222897	2226.61353050262	1804.62338286155	146.960603771707	2683.27494360235	1649.4634940178	127	3594.520970296	1487.69237838516	136	2209.3041316035	791.662239648997	125	1641.97008125113	1307.62707643129	145	1916.32696331831	1190.21522461402	138.413144395328	2375.06661475115	1819.34678482784	159.69823368249	2694.17248080669	1408.2142379102	137.142238939629	2624.74626202487	1420.60860467132	138	2052.00885406416	895.145979358637	126.125647181409	2256.20374097258	1520.37004593522	126.898119622694	2856.87965622632	310.81045637102	126	871.520742664961	2482.08047238919	134.561228724206	4106.72260218992
358.488153784791	139.801166473127	786.693120525029	1665.25783818419	174.415842981819	2533.8427329312	1062.41830334016	138	2225.72343282788	1804.3909873915	146.976220778044	2682.23679520758	1649.50563624726	127	3596.34750537259	1487.4212606522	136	2211.55806039852	791.400298700347	125	1642.77871061897	1306.52898403247	145	1916.58879365609	1188.990229605	138.382145688931	2375.09147528931	1817.45640800221	159.75446554679	2691.67138917641	1407.68173064866	137.125647181409	2625.51922468685	1420.18042999248	138	2052.99904970269	894.380894257323	126.143566162526	2254.77007298394	1518.02918242683	126.935497326854	2852.88329406377	310.882315493587	126	872.371920254731	2481.0950816607	134.606625699121	4107.08021343752
358.654781316454	139.80343708915	786.756892371044	1663.29319904237	174.511839359577	2526.62380356718	1062.79542702754	138	2224.61363198939	1803.79642101262	146.988250197392	2680.93695006293	1649.04033209418	127	3597.17910509052	1486.52650743505	136	2213.07534765201	790.876058291358	125	1643.36426729974	1304.74273150132	145	1916.32914855021	1187.26717276459	138.363192342397	2374.64211643892	1815.11054891693	159.803960583676	2689.40104389486	1406.70214495332	137.105732463407	2625.81453588632	1419.25858644662	138	2053.70751082878	893.544393956829	126.159271082241	2253.76562450062	1515.72475774613	126.964470975436	2849.9070504216	310.911009525429	126	873.243940733919	2480.04542347558	134.637860070934	4107.2912516853
358.822237598028	139.807213610154	786.839245548252	1661.49023425405	174.584746088301	2520.13697825065	1063.09822763946	138	2223.28991395974	1803.00183031775	146.995349747749	2679.53949126148	1648.2012105148	127	3597.00709174096	1485.16880118315	136	2213.82769600083	790.131775783653	125	1643.66971961734	1302.49881888201	145	1915.64206659545	1185.17470097644	138.359056039897	2373.60422660151	1812.46539585987	159.845923344385	2687.20654774506	1405.38511910094	137.083730897085	2625.40606878779	1417.94056183216	138	2053.89095812717	892.67369483865	126.173988939881	2253.14983360303	1513.51156756584	126.982272722244	2847.86565580568	310.898715548446	126	874.07180079013	2479.01284106518	134.654422508224	4107.47373147117
358.983599945141	139.810541446681	786.901095399281	1660.00982603756	174.640306310128	2514.76944068489	1063.36480290379	138	2221.81938268325	1802.14890822017	146.998672777103	2678.17046256703	1647.15075515857	127	3595.94969883933	1483.5389412921	136	2213.88964167907	789.222986482315	125	1643.66502743509	1300.02373617777	145	1914.62218348225	1182.86587669049	138.368661578589	2371.92293562696	1809.67766220509	159.881190511088	2684.86794840324	1403.86174026521	137.061156926116	2624.15807468568	1416.36020397599	138	2053.38682965038	891.798442079468	126.188586570333	2252.80280099538	1511.40834973633	126.989372272602	2846.52062346349	310.850635647835	126	874.786026577545	2478.05311112058	134.659435279833	4107.72787527518
359.137583125157	139.811060134033	786.929612517247	1658.944110141	174.685412952625	2510.68988419833	1063.64088950234	138	2220.30474152874	1801.3397123995	147	2676.90754408234	1646.05581626782	127	3594.20682438783	1481.82982742455	136	2213.40604926871	788.215971763334	125	1643.34663358839	1297.51687650802	145	1913.34838456557	1180.49867379115	138.387252202179	2369.61917474325	1806.88765314221	159.911618850664	2682.1601755689	1402.26243405364	137.04072345119	2622.04261220275	1414.65911771835	138	2052.13036398491	890.940855942161	126.202962588463	2252.53755560966	1509.41115230122	126.986922974495	2845.52820832924	310.771555003	126	875.313085969078	2477.19415321568	134.656459983892	4108.09711683795
359.284039039754	139.803872670298	786.930629831013	1658.31878236384	174.726136403815	2507.89892047569	1063.96198206053	138	2218.85935475063	1800.63788881553	147	2675.80230345415	1645.06322112557	127	3592.0243152507	1480.20678172587	136	2212.55945381019	787.182235406541	125	1642.74324434835	1295.13956170351	145	1911.89644267967	1178.22207558922	138.408211605367	2366.81738453663	1804.21575212892	159.93618862809	2678.94481234485	1400.70461737035	137.023779221956	2619.16536175544	1412.96362443431	138	2050.17413190978	890.121483508733	126.215777756107	2252.14466479784	1507.5201965462	126.976220778044	2844.53364417269	310.667149762489	126	875.583914177112	2476.45348491488	134.649448346913	4108.58121474869
359.423042863408	139.785831783304	786.917296731065	1658.09010119149	174.768620355184	2506.24278470032	1064.33850249295	138	2217.56569584049	1800.0596712793	147	2674.86302212214	1644.28008556666	127	3589.62870386333	1478.79011344968	136	2211.52945759287	786.188734155604	125	1641.90167687652	1293.01093678741	145	1910.33294790228	1176.15917142446	138.424078121284	2363.71696248239	1801.75402894499	159.954626296559	2675.2018283926	1399.28048565941	137.011749802608	2615.73231200798	1411.36793036391	138	2047.66436512283	889.365907908678	126.225969836714	2251.44298830622	1505.75833632149	126.95927654881	2843.25680023184	310.542829803978	126	875.549554785601	2475.85411725173	134.641895390886	4109.15036212856
359.553252383689	139.752962700722	786.893945620078	1658.16886330504	174.816514114655	2505.47365213066	1064.75602096492	138	2216.44729964419	1799.59414296055	147	2674.06435984735	1643.74814034206	127	3587.17514620291	1477.63345899648	136	2210.45138444684	785.286420341261	125	1640.87237264545	1291.1974813346	145	1908.71559387396	1174.39295418535	138.430335143599	2360.56653351675	1799.56445207232	159.964470975436	2671.05285565745	1398.05120166893	137.005977475148	2612.02109252324	1409.92488524157	138	2044.81889793934	888.703331037261	126.231379644816	2250.32089939574	1504.17403383082	126.938843073884	2841.54831678907	310.405241116599	126	875.19375004484	2475.43116052654	134.636527019777	4109.77110752529
359.67180001474	139.70479656542	786.854288159101	1658.44420190771	174.871512231657	2505.30085824707	1065.17910635637	138	2215.46685746182	1799.21821306445	147	2673.35539987057	1643.45352327304	127	3584.73517984368	1476.73741867087	136	2209.40367838601	784.506516092972	125	1639.7030718219	1289.72712511108	145	1907.09632313188	1172.95990010478	138.42435293085	2357.60358094745	1797.67037860885	159.964470975436	2666.71684709481	1397.04718457458	137.005977475148	2608.31300142812	1408.64621464689	138	2041.87038629374	888.167556976749	126.232706867713	2248.75818657058	1502.83680188059	126.917596325812	2839.4047158889	310.262370089217	126	874.538643451566	2475.23322982522	134.63635912475	4110.42381613848
359.774209448794	139.643367840759	786.777748981854	1658.79976371583	174.934975870155	2505.42035852559	1065.56248101964	138	2214.53707908454	1798.90092190258	147	2672.65914022778	1643.32935770676	127	3582.29518397031	1476.05641049266	136	2208.40598836833	783.856777278425	125	1638.42924608096	1288.58461205936	145	1905.51435649757	1171.85875550679	138.409284698547	2355.00968497354	1796.07006101338	159.954626296559	2662.45548996591	1396.27925510297	137.011749802608	2604.8470431129	1407.52069985694	138	2039.02777973964	887.7936224792	126.230620088965	2246.828068866	1501.82379237841	126.898917788843	2836.95264757118	310.1239101739	126	873.644897657117	2475.31430263397	134.642525174774	4111.11183600331
359.855285900085	139.572938972095	786.639682271246	1659.13822441496	175.005977475148	2505.5620792859	1065.8661326505	138	2213.55056634563	1798.61970853213	147	2671.89202393531	1643.27594940801	127	3579.77635079769	1475.51943384082	136	2207.43014419714	783.32121438203	125	1637.06885270338	1287.72349345988	145	1903.98945479804	1171.05827939765	138.389502138353	2352.86976142851	1794.73732970413	159.937515850987	2658.50370383051	1395.74676138786	137.023779221956	2601.77261978515	1406.52710177997	138	2036.43379744234	887.607071005812	126.227527558715	2244.66387779894	1501.1966858811	126.886102621199	2834.38528062427	309.999826276713	126	872.595998937798	2475.71362224336	134.657243032414	4111.83363744446
359.913119796848	139.499389855795	786.421886386915	1659.40304567149	175.084078630498	2505.54837365177	1066.06793889809	138	2212.42123854982	1798.36593303929	147	2670.99382696142	1643.19707634457	127	3577.08393041822	1475.06307965845	136	2206.42520594703	782.87324741819	125	1635.62809176428	1287.08821586898	145	1902.5260105397	1170.51568293442	138.370836067129	2351.1652989807	1793.64486571343	159.916269102915	2655.02698308408	1395.44924699954	137.04072345119	2599.14403791087	1405.65429009374	138	2034.15644174209	887.623888395705	126.226741810419	2242.4365107671	1500.99350917048	126.881540282327	2831.9175057405	309.898744065557	126	871.487870128362	2476.45520339171	134.68005230966	4112.59962681084
359.94674369768	139.43051837745	786.118738085844	1659.58279653787	175.168667045158	2505.31233878353	1066.16655092551	138	2211.10548657747	1798.14738281465	147.001327222897	2669.94111818304	1643.03172765186	127	3574.16955300596	1474.65752018966	136	2205.35776261939	782.485784959148	125	1634.11694698154	1286.63517622116	145	1901.12815646545	1170.19951678506	138.35800843374	2349.80120400692	1792.78579189112	159.894267536593	2652.1213324189	1395.39809186857	137.061156926116	2596.94625942894	1404.91852221412	138	2032.21252919978	887.848422416295	126.229310021523	2240.29733608485	1501.22459443114	126.886102621199	2829.71487074871	309.826526909755	126	870.40436010226	2477.54558701679	134.710519397478	4113.37949139925
359.958493500288	139.373980773538	785.742965767666	1659.7109381162	175.259738361099	2504.89928257196	1066.18390393195	138	2209.62189424126	1797.98870459837	147.004650252251	2668.75827373287	1642.76723403259	127	3571.05965134717	1474.31264142034	136	2204.22063885909	782.143083740007	125	1632.55420530372	1286.34549394382	145	1899.80189096331	1170.09095340933	138.353309129887	2348.64442047362	1792.17348945625	159.874352818591	2649.82008864308	1395.60808383021	137.082403674188	2595.12867289105	1404.35869334256	138	2030.59399565419	888.270340391671	126.235145865997	2238.38203097251	1501.87308685576	126.898917788843	2827.90837091809	309.785370181282	126	869.421093902665	2478.96909391199	134.743513910331	4114.13465448304
359.953299073663	139.335654509939	785.324732651598	1659.84845320533	175.357039244078	2504.43376563176	1066.15684206627	138	2208.04235459439	1797.92083617529	147.011749802608	2667.50296352223	1642.44525577005	127	3567.87535538846	1474.07561237505	136	2203.04167538321	781.845135262498	125	1630.97785016672	1286.22747616943	145	1898.56139088689	1170.18497627313	138.35582925549	2347.56906641484	1791.83170005423	159.857761060371	2648.107222565	1396.08712734766	137.101082211157	2593.63692168384	1404.02086187047	138	2029.29135370263	888.865186961868	126.241674756429	2236.79087097526	1502.89635934049	126.917596325812	2826.59176679327	309.773620378674	126	868.600495259494	2480.68227484501	134.775007614943	4114.81595880773
359.937515850987	139.317809094182	784.905136304061	1660.06902152185	175.45814764768	2504.08361535246	1066.12952593353	138	2206.48134279733	1797.97565935557	147.023779221956	2666.25340025048	1642.14643420245	127	3564.82431948816	1474.01370001134	136	2201.87510101967	781.609534584469	125	1629.44715032305	1286.31189115881	145	1897.42941571965	1170.4805493363	138.363454734109	2346.48742090554	1791.7774201843	159.84537917001	2646.92217439919	1396.82641857849	137.1138973788	2592.43043949514	1403.94391035507	138	2028.30204256204	889.5964839984	126.244648373683	2235.59169868856	1504.23166533398	126.938843073884	2825.83555572681	309.78634763294	126	867.990953250451	2482.61552414269	134.799315893647	4115.38420041545
359.917596325812	139.31925445508	784.530246825195	1660.43828790803	175.559229858837	2504.01293971004	1066.14103256912	138	2205.06773511207	1798.17398542383	147.04072345119	2665.07962606036	1641.96153609499	127	3562.15648749285	1474.18534144634	136	2200.78260904051	781.463446939601	125	1628.03630313581	1286.62980182503	145	1896.43156128421	1170.97128032012	138.373880442306	2345.36826234823	1792.0031003272	159.837760862727	2646.16595322078	1397.78951556961	137.118459717673	2591.48821923661	1404.13985519326	138	2027.6265100292	890.415149095244	126.239544560209	2234.81360197237	1505.79871960259	126.95927654881	2825.68894978282	309.816514114655	126	867.627573910207	2484.66913565322	134.811856251725	4115.8154236838
359.898917788843	139.333801496723	784.242901843173	1660.9997903559	175.655749731121	2504.35071125061	1066.21907091288	138	2203.91936815006	1798.51984663765	147.061156926116	2664.02879017758	1641.96623534819	127	3560.11048643435	1474.62282804855	136	2199.81218828642	781.43557860939	125	1626.82146245019	1287.20129169354	145	1895.58684506329	1171.63574351412	138.385328832334	2344.2308718688	1792.46249998663	159.835192651623	2645.69939088237	1398.91270274431	137.113897378801	2590.80108514059	1404.58553814243	138	2027.25474643305	891.26438901733	126.22419218108	2234.45195572435	1507.50050014642	126.976220778044	2826.1784828095	309.856439399695	126	867.528809618487	2486.71575969102	134.812370201476	4116.1227526275
359.8861026212	139.354265901695	784.077179661817	1661.76694663584	175.742715744182	2505.17278753629	1066.37202541123	138	2203.11956161434	1798.99441765115	147.082403674188	2663.11147944742	1642.18811551122	127	3558.83878967361	1475.30915534358	136	2198.97812600816	781.539187924533	125	1625.85913421512	1288.01027877814	145	1894.89559758209	1172.43276604519	138.396983480654	2343.12998988106	1793.07264033368	159.837760862727	2645.35300279755	1400.11011159547	137.101082211157	2590.36023638817	1405.22407594298	138	2027.15304499487	892.084872561465	126.197628275886	2234.45268806307	1509.23209322527	126.988250197392	2827.26654658934	309.898119622694	126	867.685892959041	2488.61716418934	134.800904615266	4116.32562635064
359.881540282327	139.372403033636	784.049375157232	1662.71660427981	175.816687837942	2506.47622239495	1066.58940405504	138	2202.68934494756	1799.55834285271	147.101082211157	2662.28974687654	1642.5995083744	127	3558.37761273126	1476.18070473006	136	2198.26884699371	781.76780158941	125	1625.17752912464	1289.00352708456	145	1894.34212341848	1173.30875497077	138.410341801587	2342.12984460174	1793.7321363873	159.84537917001	2644.95119668247	1401.28929183347	137.082403674188	2590.15161323253	1405.97863183687	138	2027.2652080397	892.826221189672	126.162239137273	2234.71140800028	1510.8996812677	126.995349747749	2828.83811040604	309.936824549751	126	868.057111988695	2490.25585796226	134.781321417005	4116.43639409254
359.884775398303	139.38400466835	784.153733008811	1663.78172258527	175.8760898261	2508.16233712459	1066.83850223665	138	2202.57423375817	1800.14844193907	147.113897378801	2661.48215076223	1643.11449894354	127	3558.61036786311	1477.13354468867	136	2197.64460628884	782.088257602542	125	1624.75865702708	1290.08915719241	145	1893.88861838262	1174.2027524514	138.42795497352	2341.29738588589	1794.33626729056	159.857761060371	2644.36059038547	1402.35767357318	137.061156926116	2590.16791951042	1406.76189124133	138	2027.52857362337	893.452999000525	126.123127125378	2235.08799069491	1512.42937121908	126.998672777103	2830.70383418206	309.969121227686	126	868.570313008348	2491.5517943283	134.758080541164	4116.43876309276
359.892940313696	139.385648003793	784.360631475935	1664.86566628909	175.921115796128	2510.03618287262	1067.07167335654	138	2202.6429940554	1800.69084057276	147.118459717673	2660.57669948736	1643.6059445722	127	3559.26855513409	1478.04093553027	136	2197.04550518314	782.444260038172	125	1624.53438758844	1291.14736134338	145	1893.47331573047	1175.049900498	138.451192720875	2340.6723927578	1794.78646387721	159.874352818591	2643.49560217885	1403.22679387619	137.04072345119	2590.3852943569	1407.48184447378	138	2027.86582044533	893.948771744815	126.084936148072	2235.4268765199	1513.77387721432	127	2832.62188259604	309.994022524852	126	869.131607782304	2492.47650908024	134.734021772041	4116.27227002679
359.899869048056	139.378983827068	784.62052387449	1665.86084608775	175.953299073663	2511.84619283031	1067.23831202071	138	2202.71735048665	1801.11985969555	147.113897378801	2659.47173916035	1643.93731164548	127	3559.97531497131	1478.78861653926	136	2196.40611690094	782.770604429242	125	1624.39474775804	1292.06450857412	145	1893.02631702607	1175.79719551351	138.480599646739	2340.26582455079	1795.01614365414	159.892940313696	2642.3392656928	1403.82248826583	137.023779221956	2590.76937815322	1408.05755992118	138	2028.19576098729	894.317591336269	126.052473253798	2235.56908909369	1514.92047976232	126.998672777103	2834.31615447741	310.011824271661	126	869.631192261207	2493.06112131845	134.711305145774	4115.82426254165
359.896009351275	139.365722916396	784.87305509941	1666.6658208749	175.974893555147	2513.32635080197	1067.28947293741	138	2202.6056079941	1801.38769204794	147.101082211157	2658.10011814582	1644.00315461703	127	3560.3395019957	1479.30531525345	136	2195.68917168061	783.009344621691	125	1624.21769077658	1292.76332031541	145	1892.49863317848	1176.4178488372	138.512899383587	2340.06443612812	1795.00958006325	159.910291627767	2640.947746525	1404.09811378472	137.011749802608	2591.2765629873	1408.43330239623	138	2028.44207328204	894.58215071953	126.029756697104	2235.39453361104	1515.88959696234	126.995349747749	2835.54382051061	310.022996173434	126	869.965950444954	2493.3901585294	134.690068767097	4114.97976328847
359.872396345658	139.34866368481	785.057800606688	1667.21191850276	175.988250197392	2514.25948804585	1067.19436678695	138	2202.15021328211	1801.4808569759	147.082403674188	2656.46011992881	1643.75680960778	127	3560.04617133452	1479.5870787494	136	2194.9019916986	783.126090121441	125	1623.89605625573	1293.23468910536	145	1891.8885091174	1176.9221162622	138.541590494459	2340.02808344514	1794.82061506719	159.922443019025	2639.42741273421	1404.04536803539	137.004650252251	2591.8482225517	1408.59440011389	138	2028.53198461099	894.775068591851	126.017727277756	2234.83940161115	1516.72546489092	126.986922974495	2836.1314054777	310.025627901552	126	870.052843199952	2493.57339484574	134.669093817569	4113.65288034163
359.819756875521	139.330906182431	785.129717915366	1667.47056867817	175.995349747749	2514.52307212644	1066.94318345109	138	2201.26640664265	1801.42265811533	147.061156926116	2654.62450631816	1643.22831039136	127	3558.94303641626	1479.70086280176	136	2194.10939177939	783.121060810649	125	1623.36997579972	1293.54910815395	145	1891.26770826767	1177.36789111327	138.559665439984	2340.13208429534	1794.58175867468	159.923747524246	2637.95344042169	1403.70769300155	137.001327222897	2592.45306920972	1408.5751373409	138	2028.43086454824	894.936082083321	126.016400054859	2233.91291971849	1517.49400495358	126.971570525793	2836.01811140136	310.016573778145	126	869.843430780943	2493.73280815798	134.648013285836	4111.83710066409
359.734030171979	139.315908708051	785.061824557745	1667.44947319468	175.998672777103	2514.08401673709	1066.54639426451	138	2199.94689077133	1801.26139970151	147.04072345119	2652.70876209045	1642.51400211389	127	3557.05610405593	1479.76575034474	136	2193.40703451078	783.029130216414	125	1622.63303244804	1293.8438271303	145	1890.7670474537	1177.8555890342	138.560818718398	2340.36657104491	1794.48586384449	159.911718104898	2636.72335639512	1403.1768021446	137	2593.07243187179	1408.45514621809	138	2028.12932183453	895.104549460082	126.025106444853	2232.70514192101	1518.27123533576	126.946199523305	2835.27901470166	309.993224358703	126	869.337583350389	2493.97777869637	134.627177533246	4109.62469367978
359.616003731588	139.305094909085	784.848038288156	1667.19098172156	176	2512.99184497999	1066.03524170851	138	2198.26117945298	1801.06133112298	147.023779221956	2650.83853681741	1641.74744577413	127	3554.5806258634	1479.91337923643	136	2192.89034215319	782.907815344418	125	1621.73562860419	1294.28555982549	145	1890.55233868072	1178.50819875877	138.542379371241	2340.75112631153	1794.74204356757	159.885042597189	2635.92498345206	1402.57436710822	137	2593.71078823922	1408.33400809589	138	2027.64424939796	895.307082029618	126.04072345119	2231.3613121643	1519.11765441074	126.90908637678	2834.10133137181	309.951282277843	126	868.580159055155	2494.36665060028	134.607659530687	4107.19284054694
359.472966487867	139.300180029626	784.509130975683	1666.76357819615	176	2511.37259879123	1065.45445341219	138	2196.34467054278	1800.88823401636	147.011749802608	2649.12551090597	1641.06859442834	127	3551.80222964523	1480.25430312667	136	2192.60693046586	782.824244163618	125	1620.75844891766	1295.03359998148	145	1890.77211413565	1179.44072677675	138.504910625217	2341.31791713799	1795.51981623329	159.845811672297	2635.67732997209	1402.02787629822	137	2594.37136377635	1408.30515454827	138	2026.99228724648	895.555346369136	126.061156926116	2230.0426569647	1520.06754256871	126.859145596866	2832.73201999439	309.887489857469	126	867.647420365353	2494.90386077031	134.591430291826	4104.77208133027
359.316315792888	139.301771879731	784.081864710968	1666.24655059069	176	2509.39703362337	1064.85397919834	138	2194.36488909645	1800.79354721789	147.004650252251	2647.63185301853	1640.5907357246	127	3549.04050500026	1480.85084571576	136	2192.54786192322	782.839165940344	125	1619.79807711837	1296.20046240397	145	1891.52402005091	1180.73884002117	138.455231703164	2342.10344094822	1796.91380893162	159.798786836899	2636.01402002151	1401.65035773113	137	2595.06009152195	1408.43867571233	138	2026.19711596262	895.843657280129	126.082403674188	2228.8898081533	1521.12114846011	126.796254363015	2831.4216056293	309.798960560186	126	866.629429123675	2495.53887125909	134.579161801865	4102.59630856876
359.158656149943	139.31013638059	783.6179313212	1665.71797005404	176	2507.26502130427	1064.27983367882	138	2192.49666632727	1800.80731029985	147.001327222897	2646.37215911699	1640.37615769799	127	3546.57873316901	1481.70438201002	136	2192.64820912611	782.993012787675	125	1618.94362075385	1297.8300115988	145	1892.82907592189	1182.43245576936	138.399880473635	2343.12478590978	1798.91389567641	159.749491385479	2636.86290771519	1401.51720866278	137	2595.77151611315	1408.76229800348	138	2025.28074390933	896.153796102526	126.101082211157	2227.99201865187	1522.24984088064	126.722796219006	2830.37385927337	309.68515896085	126	865.609530187493	2496.18974807907	134.569493970831	4100.85006599831
359.010434997565	139.323527015333	783.173860416487	1665.24107588379	176	2505.18706020192	1063.76718813305	138	2190.8954189379	1800.93434737639	147	2645.32594908987	1640.43324290052	127.001327222897	3544.64977408977	1482.76683232433	136	2192.82868743272	783.301687621639	125	1618.27622461697	1299.89518307934	145	1894.63952126906	1184.49243709893	138.348633460186	2344.3799703519	1801.41161767045	159.70314023038	2638.08727748019	1401.66108968841	137	2596.51224223559	1409.26663573358	138	2024.29360164488	896.461584790929	126.113897378801	2227.385675758	1523.41023086475	126.6430486693	2829.72967304833	309.548003550754	126	864.653866327486	2496.77217878365	134.55790263594	4099.64828930491
358.877688196226	139.342142035288	782.79899497515	1664.85048504169	176	2503.34691275694	1063.33097970972	138	2189.66488649981	1801.15363816718	147	2644.45030104438	1640.72557389092	127.004650252251	3543.41999957994	1483.96290924116	136	2193.03551551938	783.758123498792	125	1617.86173242824	1302.30848433997	145	1896.85814624762	1186.84119774953	138.308194225395	2345.85345449327	1804.23817285994	159.66576252622	2639.54155978678	1402.07946158402	137	2597.31940485745	1409.91978720615	138	2023.33422733115	896.749658253133	126.118459717673	2227.07519997059	1524.56470909285	126.564141968948	2829.58283705514	309.393644974534	126	863.80944329826	2497.23370391686	134.541080378616	4099.02999010092
358.760455439791	139.365745634072	782.528235121584	1664.55147398408	176	2501.8745201747	1062.96667623706	138	2188.84428627337	1801.43232727882	147	2643.70765660181	1641.19010088627	127.011749802608	3542.98852897696	1485.21345987834	136	2193.26171712052	784.339626860437	125	1617.7504640848	1304.94555186427	145	1899.35942235532	1189.36224649193	138.283865316468	2347.52896443769	1807.18857508425	159.641459809738	2641.12158098488	1402.73460934338	137	2598.26597334612	1410.67310109421	138	2022.54870107945	897.007329359474	126.113897378801	2227.0519075311	1525.69079003568	126.493764585622	2829.98983868266	309.232183373187	126	863.106955168102	2497.56485431044	134.514820858934	4098.94960335552
358.654798471908	139.391360979828	782.379232119117	1664.32743148378	176	2500.84142785664	1062.65462233129	138	2188.41310266879	1801.73647858999	147	2643.09107602589	1641.75748587323	127.023779221956	3543.3892223028	1486.45690928919	136	2193.54980759139	785.015037387358	125	1617.97325738491	1307.6648636599	145	1902.00926985174	1191.92022384299	138.277740448421	2349.38544832768	1810.05690403864	159.63302822931	2642.77757966397	1403.56381631636	137	2599.43843369945	1411.46837741275	138	2022.09683317953	897.234604826299	126.101082211157	2227.3264967651	1526.78388191358	126.440508504499	2831.0008159245	309.076345951354	126	862.573104996725	2497.80144867516	134.478943963015	4099.31818045404
358.554912222371	139.416096973593	782.350902172303	1664.16401351588	176	2500.27082316674	1062.3741181238	138	2188.30692556425	1802.0543669972	147	2642.63218523477	1642.3719516791	127.04072345119	3544.59289431154	1487.66327931765	136	2193.97224201712	785.752742738654	125	1618.5370015941	1310.33496573961	145	1904.68114916391	1194.38144350042	138.287743595014	2351.39829533088	1812.6710720324	159.641459809738	2644.50845856241	1404.49739314749	137	2600.9121461391	1412.25464496757	138	2022.11290324996	897.4390780294	126.082403674188	2227.91642601455	1527.85092131761	126.408840855403	2832.62877291541	308.939358923519	126	862.22484301893	2498.00791138954	134.436553166195	4100.00314119199
358.455708649395	139.435321722763	782.434610331764	1664.05502330826	176	2500.16613168264	1062.10600611304	138	2188.45223110286	1802.39158735319	147	2642.40701270981	1642.99729064011	127.061156926116	3546.54357629544	1488.83005507663	136	2194.6224607633	786.523954826047	125	1619.43302695554	1312.84950769343	145	1907.28433390865	1196.63394738545	138.311591071585	2353.52801352655	1814.91564382412	159.66576252622	2646.33770595411	1405.46872617019	137	2602.71792772691	1412.99347566682	138	2022.6626834629	897.630134463835	126.061156926116	2228.85126561307	1528.90443493458	126.401106713984	2834.85890310119	308.832498822681	126	862.075834149771	2498.25894319056	134.393112443017	4100.87367567531
358.355026282167	139.443839178743	782.618261654312	1664.0130777006	176	2500.52619698178	1061.84552019629	138	2188.78879026013	1802.77546788227	147	2642.51143613682	1643.61955013396	127.082403674188	3549.17789266883	1489.97603305275	136	2195.58398659606	787.303712183835	125	1620.64000360023	1315.13861424731	145	1909.77120431511	1198.60352490531	138.344867239005	2355.71370881357	1816.75085870138	159.70314023038	2648.28523200804	1406.43297779464	137.001327222897	2604.82879714517	1413.67324440837	138	2023.72958021746	897.818036638189	126.04072345119	2230.15631940021	1529.95413299844	126.415253911699	2837.63834615825	308.762930600076	126	862.132563920476	2498.61421621917	134.354519188048	4101.82092193752
358.254751781934	139.438401845791	782.892518132031	1664.06426140152	176	2501.35472497705	1061.59952052175	138	2189.28696677553	1803.23598533334	147	2643.03339331921	1644.23515003702	127.101082211157	3552.42318427043	1491.1185780269	136	2196.90077913936	788.06835100827	125	1622.12040085305	1317.16357731323	145.001327222897	1912.1328740877	1200.25386000061	138.385502776817	2357.89285940021	1818.19978260785	159.749491385479	2650.36773920825	1407.36246363149	137.004650252251	2607.17953747449	1414.30236672939	138	2025.23597150732	898.009707852738	126.023779221956	2231.8373374836	1531.00512618808	126.446747616311	2840.87925459624	308.732390588413	126	862.391127671068	2499.10440044799	134.325304670967	4102.75545832183
358.161829352661	139.417968370865	783.251146722906	1664.24282334375	176	2502.6437697719	1061.38601076217	138	2189.94351516538	1803.79847946741	147	2644.0135506516	1644.84777207277	127.113897378801	3556.22185868483	1492.26142587672	136	2198.56729723344	788.797285869915	125	1623.83406194138	1318.91497203195	145.005977475148	1914.39478841941	1201.58731141389	138.431011337838	2360.00621867366	1819.3364143973	159.800114059796	2652.58745674286	1408.24848572163	137.011749802608	2609.67912718259	1414.9080202765	138	2027.07057271617	898.204229752707	126.011749802608	2233.88134551457	1532.05379216942	126.489903210153	2844.4893934494	308.736818537522	126	862.839027879346	2499.71731875576	134.307743792658	4103.62098472306
358.084878834474	139.38521472651	783.691838463983	1664.58615091729	176.001327222897	2504.37332108814	1061.22938100693	138	2190.779382471	1804.47406991488	147	2645.4317718393	1645.45851141166	127.118459717673	3560.51428293804	1493.38678677152	136	2200.51323578122	789.474465534166	125	1625.73784686429	1320.40081290806	145.016400054859	1916.59250477135	1202.63042556684	138.481405678975	2362.03874405342	1820.24341997844	159.850461924548	2654.95425048507	1409.08302570724	137.023779221956	2612.25985179804	1415.51856103206	138	2029.14091127653	898.395417436816	126.004650252251	2236.24699370736	1533.09306134106	126.539317574571	2848.38285056325	308.76577976825	126	863.45420685455	2500.40414531852	134.303187016006	4104.37330213224
358.034139750468	139.345989314215	784.214274988948	1665.1321652675	176.005977475148	2506.51810832929	1061.15596772453	138	2191.82823359686	1805.2591470342	147.001327222897	2647.20569946023	1646.06769072655	127.113897378801	3565.23485239998	1494.46125833989	136	2202.61978201012	790.091441431398	125	1627.79098539458	1321.64441210609	145.035529024564	1918.75702759308	1203.42135626205	138.533876011803	2364.00697773212	1820.98626689343	159.896792399797	2657.45760394559	1409.85273582602	137.04072345119	2614.8690781573	1416.15094126241	138	2031.37533630038	898.567799810609	126.001327222897	2238.87311486495	1534.10355495224	126.59098542131	2852.49346574353	308.803966145897	126	864.203996169749	2501.08059588257	134.30939262075	4104.98897288827
358.018003987206	139.30817706994	784.822177821869	1665.91797282767	176.017727277756	2509.07159675053	1061.19094954548	138	2193.13698137961	1806.14332988745	147.004650252251	2649.22500142839	1646.67474601358	127.101082211157	3570.32565469461	1495.45215048856	136	2204.75764085044	790.650538800356	125	1629.96810641203	1322.68945379942	145.064502673146	1920.92266453393	1204.004146398	138.585002383941	2365.97984860231	1821.60214521084	159.935497326854	2660.08347949922	1410.53525243312	137.061156926116	2617.49705858419	1416.80826759756	138	2033.74822527537	898.701811758915	126	2241.66949799685	1535.06419223453	126.641721446403	2856.74966908666	308.834161123923	126	865.043222167083	2501.65571658368	134.325009627087	4105.44657157837
358.038678330631	139.278878737303	785.520926712801	1666.95615908412	176.041506499712	2512.04036629786	1061.3425590474	138	2194.74417864118	1807.09840249939	147.011749802608	2651.36792572949	1647.2870554059	127.082403674188	3575.75270260709	1496.35088181521	136	2206.84094688779	791.169853022659	125	1632.27056317234	1323.61254528075	145.103207600203	1923.14645255158	1204.43849831168	138.62855650752	2368.06959746818	1822.12043279828	159.964470975436	2662.81976329496	1411.11511326497	137.082403674188	2620.17488805726	1417.48756321974	138	2036.26763066808	898.780265271744	126	2244.54339901275	1535.9541784949	126.689975291497	2861.08724024635	308.841517573344	126	865.923322888045	2502.05275282401	134.346616664367	4105.75892514035
358.09397975351	139.264925280777	786.309710850447	1668.2229743852	176.082229950902	2515.42497537274	1061.60008784688	138	2196.66324381559	1808.0819593755	147.023779221956	2653.51995361947	1647.91315108331	127.061156926116	3581.50394897086	1497.18002834553	136	2208.8582760432	791.677738156364	125	1634.72481490849	1324.52135147359	145.148210852555	1925.52337126184	1204.79970518993	138.658054405675	2370.39793235187	1822.5782899001	159.983599945141	2665.64237297818	1411.58937801153	137.101082211157	2622.94317850539	1418.1802201723	138	2038.93823367356	898.793037206314	126	2247.40323190338	1536.75593197162	126.734301319208	2865.4217390287	308.817761069064	126	866.795646139258	2502.22263771589	134.370424382633	4105.95502448775
358.173317297408	139.269489298338	787.180097255917	1669.65075428744	176.142059654121	2519.18100380227	1061.92909316402	138	2198.85963310974	1809.04166343706	147.04072345119	2655.58147871831	1648.56466105492	127.04072345119	3587.56956124436	1497.99276846121	136	2210.87656221986	792.20914915964	125	1637.37090688124	1325.54783020595	145.195235687953	1928.18364810646	1205.18378449349	138.668026552649	2373.08677181524	1823.03992145142	159.994022524852	2668.53571171506	1411.97449455893	137.1138973788	2625.84480699162	1418.87550204839	138	2041.73956836701	898.739700590273	126	2250.16405233078	1537.45632209827	126.774221866647	2869.63795415126	308.761132423289	126	867.61784066425	2502.15203417292	134.392853664017	4106.0764601108
358.262914263592	139.292269372046	788.104797333178	1671.12750264636	176.219813076059	2523.17632649013	1062.27485745632	138	2201.22773678289	1809.91605233656	147.061156926116	2657.44960346645	1649.24649088853	127.023779221956	3593.89670056353	1498.86180713946	136	2213.00010727477	792.798093121895	125	1640.23496190836	1326.82713112711	145.238758811913	1931.25898443321	1205.69516450553	138.656973563873	2376.21535834605	1823.59052843729	159.998672777103	2671.46976039096	1412.30159675172	137.118459717673	2628.88058302587	1419.55528192095	138	2044.58558035444	898.627433921547	126	2252.75682425705	1538.04095467437	126.808004165623	2873.59447550464	308.678899565098	126	868.36089337859	2501.85200140892	134.412340666957	4106.17145726611
358.346790387654	139.329265350296	789.042682089723	1672.51871881819	176.310472707504	2527.20127357822	1062.57204235075	138	2203.60917264799	1810.64600334889	147.082403674188	2659.02898735174	1649.95981250998	127.011749802608	3600.37006694497	1499.86069585759	136	2215.32859816866	793.469746938199	125	1643.31069422495	1328.47244966314	145.273080547663	1934.84648487441	1206.42302956929	138.626688169161	2379.78500225553	1824.31165246023	160	2674.38003058845	1412.60148561104	137.113897378801	2631.98049284556	1420.1858747214	138	2047.30953320947	898.466169536158	126	2255.10897963461	1538.48589274186	126.834822200535	2877.10904124418	308.581681857896	126	869.002089137505	2501.33662791086	134.42769867788	4106.25434460041
358.411192729568	139.373752974209	789.944375051241	1673.69400389378	176.405241116599	2530.99973146124	1062.75853682523	138	2205.81811620325	1811.1852240966	147.102409434054	2660.23431682286	1650.68394276846	127.004650252251	3606.80057922259	1501.03423239255	136	2217.91011015965	794.228661317531	125	1646.54087221249	1330.53926537712	145.29351402259	1938.97029942388	1207.41550416745	138.582313945649	2383.70645532435	1825.25327407524	160	2677.16787073132	1412.89220327962	137.101082211157	2635.00643453645	1420.7192151627	138	2049.6877529086	898.262164769959	126	2257.14539593051	1538.75645145699	126.853906925811	2879.98426834517	308.480166369456	126	869.523887622778	2500.61289586122	134.438907005887	4106.31560723608
358.444682240637	139.418183752341	790.759536466098	1674.54110614804	176.493399962794	2534.3201151107	1062.78274822933	138	2207.67697106364	1811.49784194853	147.118547631051	2660.99815190849	1651.38390429184	127.001327222897	3612.96374133949	1502.38971769971	136	2220.72985197163	795.057976078507	125	1649.82693651221	1333.01495461946	145.297383264146	1943.57501482947	1208.66665437284	138.530812802483	2387.81359657473	1826.42490686116	160	2679.72815440202	1413.17633003859	137.082403674188	2637.79227552846	1421.10752492508	138	2051.50648850702	898.016741988836	126	2258.79940295934	1538.8144038845	126.863795849117	2882.05324956788	308.383379436229	126	869.913670435312	2499.67652321305	134.44652531317	4106.33483282863
358.44268643418	139.456022258634	791.44765673981	1674.98853669149	176.565269385183	2536.97034909511	1062.61422672066	138	2209.0562187095	1811.56690376879	147.130209520281	2661.28340686993	1652.01132805902	127	3618.63842539007	1503.88765864671	136	2223.70848594862	795.920221850514	125	1653.04264374983	1335.81632899238	145.284568096502	1948.53103115294	1210.11420237356	138.478598278061	2391.89613754267	1827.79243272554	160	2681.9847174422	1413.44066024706	137.061156926116	2640.19013933242	1421.31478840332	138	2052.62704739583	897.732226019258	126.001327222897	2260.02929639252	1538.63699693134	126.865838062386	2883.22944739232	308.297771645683	126	870.166606018248	2498.53147227056	134.451594309524	4106.29056364658
358.404093179211	139.483000100758	791.984029243063	1675.00872421147	176.612921570733	2538.84595819952	1062.24587927097	138	2209.8957069538	1811.38960598388	147.137676600757	2661.08915718963	1652.50428106267	127	3623.66005837079	1505.44019134339	136	2226.72571310778	796.759157264858	125	1656.06404243984	1338.79184867937	145.257457979105	1953.6624492716	1211.64724398279	138.43260522577	2395.75681780911	1829.27613587546	160	2683.93978097594	1413.65764318368	137.04072345119	2642.13198831612	1421.32537250573	138	2053.05246497649	897.412269105193	126.005977475148	2260.83776956394	1538.22850064137	126.861275793086	2883.54927980704	308.226667341366	126	870.290401396919	2497.19993623197	134.454910097969	4106.17655209599
358.334760968306	139.497891747328	792.362025912345	1674.62499103405	176.631620737925	2539.94354990149	1061.69629630972	138	2210.21048009633	1810.98299848119	147.141805662347	2660.45253038632	1652.80791977332	127	3627.93262077873	1506.93259466131	136	2229.63746097438	797.515484377306	125	1658.78380259621	1341.74865348014	145.220340094979	1958.76639524972	1213.13375991667	138.396013269906	2399.25384429943	1830.78169885087	160	2685.68339718537	1413.80295606909	137.023779221956	2643.65544810559	1421.16027756404	138	2052.93872060096	897.0713445206	126.016400054859	2261.2998356137	1537.63592431206	126.85311080812	2883.20859572498	308.171803933371	126	870.317121538286	2495.75014073993	134.459469308355	4106.03004381133
358.244642811461	139.503956932268	792.594161081805	1673.91458693122	176.620560508239	2540.35557275593	1061.00809746874	138	2210.08520213674	1810.38895778677	147.144887823202	2659.44892879488	1652.87954254146	127	3631.44277354068	1508.23860289501	136	2232.30480938777	798.133006676014	125	1661.1333060881	1344.47688385212	145.179727274843	1963.6394996557	1214.43911342782	138.370549546866	2402.32875158812	1832.19746851284	160	2687.37893612848	1413.8517349667	137.011749802608	2644.89695880975	1420.86159614971	138	2052.56534090074	896.733600058585	126.035529024564	2261.5355586537	1536.94653633923	126.844051947113	2882.50244478046	308.134338315833	126	870.291607322168	2494.29636602483	134.469111701992	4105.88968547902
358.146906347334	139.504902363221	792.71525510857	1672.99928093229	176.582749526797	2540.2751840674	1060.24288371855	138	2209.67274624758	1809.67323090484	147.148210852555	2658.21097680581	1652.70512257664	127	3634.25166390235	1509.25196947933	136	2234.61688329848	798.572782456156	125	1663.08423055721	1346.78091713631	145.142588710869	1968.09293762159	1215.4485285366	138.356637721462	2404.99391204247	1833.4146202544	160	2689.20220050304	1413.78814463924	137.004650252251	2646.04675625053	1420.48853298745	138	2052.26036763286	896.430770607605	126.064502673146	2261.70440643465	1536.27223446134	126.837760862727	2881.78923442615	308.115050878411	126	870.270591426072	2492.98279007525	134.486032172517	4105.8118609836
358.055005727682	139.507271679679	792.773885726468	1672.02514953462	176.524125074564	2539.9591383152	1059.47180351308	138	2209.16707982546	1808.92060974209	147.153555464955	2656.91654967887	1652.30115861556	127	3636.48591735456	1509.90547089264	136	2236.51931147766	798.816623776517	125	1664.65393952858	1348.50794934934	145.116531006803	1971.9744189278	1216.08879541664	138.351266916618	2407.31491464721	1834.35035209042	160	2691.29105745556	1413.61654453317	137.001327222897	2647.30527818327	1420.11315865362	138	2052.33015824627	896.195168095333	126.101880377306	2261.96297741233	1535.72845319156	126.835192651623	2881.40175635096	308.113835327601	126	870.307113840197	2491.95532015377	134.511027986315	4105.83403442941
357.979820516848	139.514223547571	792.823392300926	1671.1311018035	176.452170172532	2539.66301429093	1058.75911976818	138	2208.76211812831	1808.21874111341	147.161455822713	2655.76278236972	1651.71436516834	127	3638.30733409429	1510.18349589431	136	2238.01937196803	798.871015394787	125	1665.89174257158	1349.56967220707	145.107313678079	1975.17788474725	1216.33832027954	138.351873313763	2409.38540749645	1834.96147636504	160	2693.71676002538	1413.35823795699	137	2648.83989440708	1419.80603634871	138	2052.9962681127	896.053767904337	126.143560600305	2262.44641479472	1535.41286905412	126.837760862727	2881.59707914362	308.131121396345	126	870.442584437156	2491.32792603888	134.540551321868	4105.97627755871
357.928936343808	139.52773134705	792.914256606505	1670.42852430182	176.375743973492	2539.60007698228	1058.15801842811	138	2208.63029042429	1807.6552163291	147.170932971471	2654.95213529952	1651.01624556872	127.001327222897	3639.88362681958	1510.12487398096	136.001327222897	2239.17572400264	798.76403374682	125	1666.86857007516	1349.95006031459	145.118303149841	1977.6435596863	1216.22786098032	138.356803182753	2411.29173717943	1835.25205412279	160	2696.45253308	1413.05189175715	137.001327222897	2650.74267242289	1419.62676079812	138.001327222897	2054.34738659698	896.02233388283	126.183485885345	2263.2507595191	1535.38599083781	126.84537917001	2882.52506506293	308.166362370603	126	870.702418511687	2491.15332289527	134.568807476769	4106.24044181358
357.903917812333	139.545175381674	793.078274099548	1669.98158057815	176.30185979311	2539.8800611535	1057.70155124933	138	2208.88108114214	1807.30163000609	147.179704557167	2654.64626568777	1650.29079435407	127.004650252251	3641.33335720856	1509.81267856769	136.004650252251	2240.06557130842	798.540203682923	125	1667.64884564264	1349.70363364888	145.149438821218	1979.34638257125	1215.82915466441	138.364888116498	2413.10080587145	1835.26139399166	160	2699.38798884642	1412.7402631606	137.004650252251	2653.01811643809	1419.60990630185	138.004650252251	2056.33188723317	896.102265521288	126.214979589957	2264.42502320585	1535.66294979264	126.856433837474	2884.21705176696	308.219385360998	126	871.095009071418	2491.41430658844	134.588727001944	4106.61095657677
357.903829898955	139.563099100392	793.329254673631	1669.81185457886	176.236742187665	2540.49977897406	1057.4032505469	138	2209.55422097795	1807.21479489637	147.184813108242	2654.94873734972	1649.62081551798	127.011749802608	3642.71692971113	1509.35381716221	136.011749802608	2240.76047471466	798.251405008433	125	1668.28543795129	1348.93984030806	145.196033854103	1980.29599196522	1215.23968525169	138.374416750595	2414.85059862774	1835.05900519764	160	2702.35152790339	1412.46448894038	137.011749802608	2655.58371048251	1419.76385546626	138.011749802608	2058.77458684879	896.280768020182	126.232357096474	2265.96633246414	1536.21001440836	126.869702566341	2886.59010087426	308.286691181683	126	871.610302529505	2492.02667814255	134.594932606687	4107.06339239269
357.924024233696	139.576340304409	793.66272242968	1669.90370501483	176.186394322913	2541.38361396907	1057.26076458498	138	2210.6309912516	1807.4293073313	147.184813108242	2655.89816589344	1649.08436294984	127.023779221956	3644.04387006753	1508.87175588208	136.023779221956	2241.31533212338	797.953390935383	125	1668.81799030278	1347.81396175601	145.249293063712	1980.54045307521	1214.55652571985	138.38581881979	2416.54137507924	1834.71225478626	160	2705.13075110849	1412.24789056794	137.023779221956	2658.27956383478	1420.06429026292	138.023779221956	2061.41002547143	896.533874955606	126.232357096474	2267.82104588786	1536.95573078532	126.882517733985	2889.46067710201	308.363714554144	126	872.223772709821	2492.86926136564	134.586073311198	4107.56862095823
357.958319777002	139.58056248246	794.062037730652	1670.20978635148	176.154558778791	2542.43565638781	1057.25813095698	138	2212.05800037728	1807.9490136738	147.179704557167	2657.47406115337	1648.73859883036	127.04072345119	3645.30630254081	1508.48376095168	136.04072345119	2241.77888780956	797.696143132336	125	1669.28156102992	1346.50894317054	145.298710487042	1980.18608366464	1213.87041686858	138.398291752016	2418.14628611054	1834.29848283054	160	2707.52912621226	1412.1056744727	137.04072345119	2660.91431806308	1420.47593661084	138.042050674087	2063.95243835081	896.832806652384	126.214979589957	2269.89494066353	1537.80621277797	126.892489880959	2892.57594188694	308.445949450162	126	872.898083687275	2493.81544777104	134.561863315268	4108.10306359244
