Light	Light	Light	Light	Light	Light	Light	Light	Light	Light	Light	Light	Light	Light	Light	Light	Light	Light	Light	Light	Light	Light	Light	Light	Light	Light	Light	Light	Light	Light	Light	Light	Light	Light	Light	Light	Light	Light	Light	Light	Light	Light	Light	Light	Light	Light	Light	Light
Optode1-730nm	Optode1-Ambient	Optode1-850nm	Optode2-730nm	Optode2-Ambient	Optode2-850nm	Optode3-730nm	Optode3-Ambient	Optode3-850nm	Optode4-730nm	Optode4-Ambient	Optode4-850nm	Optode5-730nm	Optode5-Ambient	Optode5-850nm	Optode6-730nm	Optode6-Ambient	Optode6-850nm	Optode7-730nm	Optode7-Ambient	Optode7-850nm	Optode8-730nm	Optode8-Ambient	Optode8-850nm	Optode9-730nm	Optode9-Ambient	Optode9-850nm	Optode10-730nm	Optode10-Ambient	Optode10-850nm	Optode11-730nm	Optode11-Ambient	Optode11-850nm	Optode12-730nm	Optode12-Ambient	Optode12-850nm	Optode13-730nm	Optode13-Ambient	Optode13-850nm	Optode14-730nm	Optode14-Ambient	Optode14-850nm	Optode15-730nm	Optode15-Ambient	Optode15-850nm	Optode16-730nm	Optode16-Ambient	Optode16-850nm
409.268743904651	142.90331404932	776.098736015916	1321.63400174682	181.107059686304	2037.95271617328	1579.62000967599	143.202164422313	2706.24312815333	1895.85525852815	159.903314049319	2999.02876101004	1361.64950865951	132.291799732757	2658.13495515336	1311.24466153152	148.978949692891	2076.41671884351	737.385390797484	130.106182896144	1328.35090815318	931.919414957234	146.970522919636	1240.81414675931	944.233014385434	143.976220778044	1726.37874772699	648.138251775774	161.242887873503	796.882033292483	1102.13525520363	155.856345924096	1773.86692904727	593.900276012383	148.995349747749	693.944792240432	1198.5727663893	144.865123072014	2274.82126230527	1310.07655163611	137.179727274843	2258.89914960313	978.343815152942	143.190149854555	2042.87655052006	1089.1690148398	148.001327222897	1699.23173175391
409.353694938523	142.942876493951	776.080199713025	1321.86396210318	181.1138973788	2037.52255591368	1579.75878068222	143.196301052989	2705.88795195172	1896.36285722557	159.942876493951	2999.27244569679	1361.55885294905	132.297209540859	2657.84979679556	1311.14038768008	148.963143752539	2075.76854067246	737.431411446533	130.141805662347	1328.67096536666	931.836191119806	146.959820723185	1240.42642693448	944.46929887058	143.95927654881	1727.64310157771	648.247771741902	161.220080274945	797.148860396916	1102.36715129439	155.885840763338	1775.06772565579	593.832310285989	148.988250197392	694.041657334727	1198.7034780955	144.870488314637	2275.09786768555	1309.49317537502	137.202962588463	2257.21441721689	977.548395987539	143.226741810419	2040.3931931455	1088.07597367405	148	1696.73806933239
409.376133107079	142.970243302896	775.824179714743	1321.99577142316	181.113809465422	2036.78777975544	1579.64876057782	143.179616643789	2704.77962607822	1896.64209660861	159.970243302896	2998.94102754905	1361.17177348365	132.308936625791	2656.78816040411	1310.72431561457	148.934170103957	2074.65079276314	737.221186406594	130.175054304917	1328.34822684917	931.472395763323	146.93284288106	1239.63456512177	944.32763843521	143.938843073884	1728.01126297399	648.049249658344	161.191366446397	796.955461556378	1102.23295793949	155.912946073561	1775.38848360111	593.502954526127	148.976220778044	693.709011167906	1198.50173587566	144.873025595694	2274.10309730195	1308.63430444978	137.225964274493	2254.58423970137	976.600104878313	143.266687725683	2037.15555993073	1086.83354206154	148	1693.64312464541
409.307112046384	142.986922974495	775.247006241212	1321.87541545659	181.100820353295	2035.41603076554	1579.19700014515	143.15462082999	2702.6625101802	1896.56608298715	159.986922974495	2997.71357596341	1360.46854787792	132.324773565762	2654.89091162021	1309.9775724471	148.892142147546	2073.01200779634	736.749539541576	130.200863391861	1327.33832170914	930.802177008096	146.892142147546	1238.38018403793	943.79589944468	143.917596325812	1727.36694128483	647.528998612562	161.159271082241	796.223141863831	1101.72272551707	155.937515850987	1774.70583104869	592.919957645041	148.95927654881	692.907577623204	1197.97211197255	144.876890030076	2271.81479223304	1307.53076616075	137.244642811461	2251.04584933997	975.517233398687	143.307126960474	2033.22214250661	1085.43517717107	148	1689.90564157998
409.126869143101	142.995349747749	774.290433868153	1321.36654177886	181.071325514053	2033.11438068702	1578.33647068326	143.124861433113	2699.36485468736	1896.03714692264	159.994022524852	2995.34052624664	1359.44769393767	132.343293635013	2652.09175861772	1308.90258931392	148.840039344837	2070.78261423525	736.022980945927	130.214979589957	1325.60473708148	929.818870824056	146.83871212194	1236.60104247298	942.883151011859	143.898917788843	1725.65008268786	646.691702451518	161.12618865601	794.903268056362	1100.84455294972	155.95927654881	1772.95222863139	592.107130278875	148.938843073884	691.631363163308	1197.13911945523	144.884775398303	2268.31271108095	1306.23171980973	137.255703041147	2246.71151372588	974.3331425506	143.342756967586	2028.72069638319	1083.89215775119	148	1685.55098121755
408.828658391875	142.997345554206	772.938063497595	1320.3825133517	181.023952945243	2029.68873638928	1577.04715010616	143.094153476796	2694.84334683742	1895.01359942582	159.992695301956	2991.70031857626	1358.12279812099	132.362233670704	2648.33589287925	1307.52411824466	148.779657867194	2067.89273418662	735.057141365613	130.214979589957	1323.12787977651	928.536279869706	146.775007614943	1234.24836280684	941.622495687292	143.884775398303	1722.87090917658	645.564073475458	161.094153476797	792.991846708494	1099.62847316244	155.974893555147	1770.13349267548	591.105365274769	148.916269102915	689.915646953309	1196.04105016783	144.897590565946	2263.77455384243	1304.79700338183	137.25613631843	2241.77147389	973.089332408549	143.368968332195	2023.84364395653	1082.2319943399	147.998672777103	1680.68458254543
408.421680267768	142.995349747749	771.219828417733	1318.90196415766	180.958493500288	2025.08708652666	1575.35905169223	143.065807178367	2689.20618152939	1893.51351517757	159.983599945141	2986.82986198199	1356.52427594989	132.381280239627	2643.60869931404	1305.88953733029	148.715867484646	2064.3048954006	733.876620820964	130.200863391861	1319.91655137841	926.991045218685	146.702790459141	1231.30642833159	940.072048241957	143.876890030076	1719.11998010779	644.195784692571	161.065807178367	790.543983995404	1098.12970080475	155.982272722244	1766.34304744431	589.970773229106	148.894267536593	687.839798169092	1194.73083789312	144.912946073561	2258.47252717569	1303.29474617325	137.244106899082	2236.49347887981	971.836056251079	143.381783499838	2018.84338337009	1080.50067720202	147.995349747749	1675.49828491427
407.928916088693	142.988250197392	769.212457695272	1316.98213162899	180.8760898261	2019.42159823656	1573.35805479888	143.042050674087	2682.70191985482	1891.62507760291	159.964470975436	2980.92571836798	1354.70052227288	132.398719467077	2637.96908487532	1304.06697282409	148.654012723612	2060.04603779405	732.51464515905	130.175054304917	1316.02393912291	925.242355921904	146.624256026508	1227.8155414335	938.315781725964	143.874352818591	1714.5679382566	642.660381766083	161.042050674087	787.673211303358	1096.43046215329	155.977622469994	1761.7625780188	588.772731170661	148.874352818591	685.524104819449	1193.27546670389	144.927093271276	2252.73432772853	1301.8029307802	137.219629842208	2231.18783788354	970.630291714854	143.378813011071	2013.99421578841	1078.76394433651	147.988250197392	1670.2445245555
407.385059733563	142.976220778044	767.03279506533	1314.74975528248	180.780637356678	2012.97393202632	1571.17081459052	143.023779221956	2675.70288558539	1889.48478215078	159.935497326854	2974.33373941621	1352.72106182298	132.413908758352	2631.58581704762	1302.14840766363	148.600303081266	2055.24038660463	731.017005806859	130.141805662347	1311.56514504572	923.371712117677	146.54185235232	1223.88701215051	936.454857639364	143.875138566887	1709.45109330187	641.047820301774	161.023779221956	784.542911917921	1094.63309530888	155.958493500288	1756.6479416289	587.586409075436	148.857761060371	683.116795979489	1191.75350710168	144.935497326854	2246.91699028383	1300.40183750346	137.184813108242	2226.18382796773	969.52901872876	143.359867413159	2009.57052937711	1077.10072703242	147.976220778044	1665.21258167731
406.833310417138	142.95927654881	764.82069525167	1312.39500088792	180.678039347749	2006.15706195462	1568.96189268878	143.013077025505	2668.64982918044	1887.27612670656	159.898119622694	2967.49020374113	1350.67778801803	132.424803363587	2624.73505075235	1300.24357463309	148.560811073508	2050.10492709249	729.444681003138	130.106182896144	1306.71660081645	921.479372765244	146.45814764768	1219.69882883532	934.599179743244	143.876872874622	1704.05406060624	639.457058037924	161.011749802608	781.347805708291	1092.8506916716	155.923747524246	1751.30550757611	586.485860001046	148.84537917001	680.776486012754	1190.25783622261	144.935497326854	2241.37536544002	1299.1799398039	137.144887823202	2221.80024301633	968.591404550158	143.328373708547	2005.81810594921	1075.60309433939	147.95927654881	1660.69776040741
406.317577036211	142.938843073884	762.725895517884	1310.14112533088	180.57704504997	1999.47145706479	1566.9063809875	143.009300504501	2662.00920989059	1885.19725501997	159.856439399695	2960.87953302332	1348.68726390143	132.428390950576	2617.79889319566	1298.47897436406	148.540377598582	2044.94030057256	727.875058226538	130.074233951621	1301.71705346695	919.681278781396	146.375743973492	1215.48768697642	932.853276025397	143.877686147768	1698.68773342573	637.983573459057	161.004650252251	778.294107958331	1091.19322581327	155.874340400738	1746.06674992576	585.531053515285	148.837760862727	678.655909881795	1188.88648571972	144.927093271276	2236.41870982253	1298.2211508367	137.106530629557	2218.29927420002	967.869287735927	143.290016514902	2002.91999231234	1074.36485606056	147.938843073884	1656.95568371934
405.881019284038	142.917596325812	760.888674476423	1308.21473404891	180.488166202645	1993.43716870791	1565.1742542383	143.013077025505	2656.21563624986	1883.44065656861	159.816514114655	2954.96868063975	1346.88262333604	132.422592430671	2611.22202524813	1296.98563056691	148.541678629033	2040.09486272609	726.400300781458	130.050023955691	1296.84844835914	918.099292733899	146.298536763756	1211.52201995424	931.308340328902	143.876872874622	1693.66384348491	636.712837685661	161.001327222897	775.574683900044	1089.75912326517	155.815715948505	1741.25863977888	584.768176404235	148.835192651623	676.883299079335	1187.73469588673	144.912946073561	2232.29918425554	1297.59805111692	137.076252475754	2215.87589179553	967.404504902187	143.251306780671	2000.99188948836	1073.46922803302	147.917596325812	1654.18389673318
405.555169494274	142.897590565946	759.425990435304	1306.80854192573	180.420590658012	1988.52486129251	1563.89942578327	143.023779221956	2651.62523698108	1882.15844420888	159.785020410043	2950.15713059354	1345.40424645352	132.404893383187	2605.45939590725	1295.88949304931	148.564680315064	2035.91711347677	725.119363244737	130.036856247461	1292.40922080589	916.852647971135	146.229642637308	1208.06830307693	930.036091091205	143.875138566887	1689.28011927744	635.712564075871	161	773.354836420435	1088.62622558453	155.754029965642	1737.18185916009	584.22304769544	148.837760862727	675.556684605597	1186.88475082856	144.897590565946	2229.19736540133	1297.36289306682	137.05930824652	2214.64053109215	967.222829781831	143.218491415383	2000.07764692285	1072.9768150441	147.898917788843	1652.50476627838
405.360626438157	142.881452368949	758.416493300466	1306.05791284599	180.383205712942	1985.09059427388	1563.16712816903	143.04072345119	2648.4713798576	1881.44856761049	159.767642903526	2946.72366333488	1344.37667695443	132.376179554639	2600.92203715939	1295.28719088534	148.606620358096	2032.71049538578	724.127229362985	130.035529024564	1288.68728738016	916.040656731007	146.174364903565	1205.3637186406	929.090745232863	143.874352818591	1685.79458810863	635.031315014433	161.001327222897	771.757657531033	1087.85181269766	155.697966483604	1734.0863880786	583.905879877625	148.84537917001	674.735643051239	1186.40022068227	144.886102621199	2227.23674663349	1297.54447462164	137.057123506049	2214.63896018228	967.333732709569	143.194800106805	2000.16810926564	1072.92267659996	147.886102621199	1651.9722398042
405.30331603592	142.869790479719	757.894296936772	1306.02312102806	180.380001596585	1983.33213379895	1563.00454756697	143.062484149013	2646.84154221873	1881.34363713749	159.767642903526	2944.80047850686	1343.89292289247	132.340302862305	2597.91126290471	1295.23506099005	148.662525372418	2030.681325597	723.50175210903	130.045373703441	1285.92081857796	915.731532028247	146.13628732666	1203.58250652257	928.506586405171	143.876890030076	1683.40713874492	634.698143730309	161.004650252251	770.858515238987	1087.47211713858	155.654810889762	1732.15258920339	583.81319758787	148.857761060371	674.441105190932	1186.31729167932	144.881540282327	2226.47820780081	1298.13905983806	137.067134401264	2215.84354710299	967.728261913372	143.179966415029	2001.20787517551	1073.30792151294	147.881540282327	1652.57043930664
405.379149216498	142.862323399243	757.850748409625	1306.70184347359	180.411734441382	1983.28251553813	1563.39535918007	143.087053926439	2646.69193123597	1881.82975550579	159.785020410043	2944.38498793413	1344.00264267865	132.303099102628	2596.61227562748	1295.74226913013	148.726141966036	2029.93765086498	723.295964430347	130.06381137191	1284.2874558839	915.956497095969	146.119630372738	1202.83127608824	928.300859795177	143.884775398303	1682.25156421583	634.724617856472	161.011749802608	770.687063718106	1087.50189923499	155.62996630277	1731.48761683058	583.932617902015	148.874352818591	674.66083583258	1186.64339869214	144.886102621199	2226.93230809272	1299.11242305945	137.083730897085	2218.16735209434	968.379652745746	143.170784823524	2003.10790160356	1074.10206793447	147.886102621199	1654.22781406045
405.573579893301	142.858194337653	758.244503283673	1308.02958545391	180.476224696675	1984.83462752656	1564.27932766459	143.112832013765	2647.87977707905	1882.84505084821	159.816514114655	2945.36939174226	1344.70878908271	132.272009354368	2597.07557245149	1296.77446927899	148.79105993639	2030.48081330002	723.531962638781	130.087053926439	1283.8830793995	916.708499462789	146.125115424887	1203.13949646182	928.480045085976	143.898917788843	1682.39225192113	635.109905323722	161.023779221956	771.234206606783	1087.94451998004	155.624510018283	1732.12573791873	584.249811634361	148.894267536593	675.358939091843	1187.35870108535	144.898917788843	2228.55608212556	1300.40587465132	137.101082211157	2221.46493387898	969.249560979413	143.16356636017	2005.74996676329	1075.25076092658	147.898917788843	1656.81900607848
405.868850582163	142.856439399695	759.012400622754	1309.90643547167	180.569336129536	1987.77624178747	1565.57426674862	143.137676600757	2650.1968021212	1884.30612142465	159.856439399695	2947.57408647411	1345.96341075754	132.256218890783	2599.2301950088	1298.25620213833	148.851766429769	2032.22147318169	724.196717913453	130.114159236662	1284.71982727635	917.944001933885	146.152604205742	1204.4664664991	929.035598262492	143.917596325812	1683.81274606731	635.838986771787	161.042050674087	772.452598273167	1088.78587269649	155.636809557488	1734.02282488801	584.749869315129	148.916269102915	676.481017296462	1188.42104184182	144.917596325812	2231.25367381399	1301.9444984597	137.115224601697	2225.53953749893	970.291626611209	143.15462082999	2008.99224147643	1076.68355962058	147.917596325812	1660.17641725874
406.244676890794	142.856439399695	760.08990404513	1312.20934044515	180.686030539855	1991.86121186866	1567.18456248995	143.159183168863	2653.44319135534	1886.11401451182	159.898119622694	2950.82292987917	1347.68574736349	132.260741674936	2602.90214772217	1300.09164598346	148.90331404932	2034.9978151665	725.248727399259	130.142326853007	1286.7261325793	919.594380386559	146.197973309524	1206.70936859116	929.942399719681	143.938843073884	1686.43044260002	636.882282296422	161.067134401264	774.270410648879	1089.99487297348	155.661203711742	1737.07647049363	585.416966263414	148.938843073884	677.963030775896	1189.7699196741	144.938843073884	2234.86872786957	1303.64577188706	137.123109969924	2230.14782540382	971.455975910783	143.142238939629	2012.66842342443	1078.32032377154	147.938843073884	1664.09517143945
406.678403970578	142.858194337653	761.419556057527	1314.80529303979	180.821164366906	1996.84615730239	1569.00769701336	143.175054304917	2657.44576090416	1888.16030121911	159.935497326854	2954.96402275873	1349.76546816034	132.286947477323	2607.83667503748	1302.17179394158	148.942876493951	2038.60577822845	726.620054289679	130.170932971471	1289.75464144863	921.570388436795	146.256079004831	1209.71622092781	931.162089826224	143.95927654881	1690.08160047355	638.197603827628	161.098803729047	776.586689115934	1091.5251810145	155.690854515393	1741.11168668678	586.234155244437	148.95927654881	679.731513711228	1191.32949132058	144.95927654881	2239.19611879262	1305.4240634266	137.126974404306	2235.02082210162	972.69098103907	143.125647181409	2016.60401634502	1080.07816428479	147.95927654881	1668.35545382341
407.15112715621	142.862323399243	762.956647403763	1317.56719902367	180.971160741182	2002.52083457961	1570.94810329962	143.184813108242	2662.07287769437	1890.34439445795	159.964470975436	2959.87946843428	1352.07068755107	132.332645089824	2613.72280943101	1304.38165771935	148.970243302896	2042.82057794345	728.221550011706	130.198833526873	1293.59384656834	923.765327946411	146.322205354658	1213.29991968454	932.630840058768	143.976220778044	1694.53007601439	639.723786384693	161.136611235721	779.274882920177	1093.30256931558	155.719719570747	1745.89324059473	587.175326601766	148.976220778044	681.704463811741	1193.01270853456	144.976220778044	2243.97596278414	1307.19605029299	137.129511685363	2239.87511599945	973.945745956696	143.105732463407	2020.61375916876	1081.87547095609	147.976220778044	1672.72883394382
407.643160341387	142.869790479719	764.663859643318	1320.37823200623	181.132160568936	2008.70783849269	1572.91605441325	143.188136137596	2667.21339828081	1892.57053684219	159.983599945141	2965.46649378214	1354.46249840716	132.391642634395	2620.19580705149	1306.610529737	148.986922974495	2047.39952686051	729.951487597102	130.224209336535	1297.97607339351	926.06482762324	146.392428382691	1217.24287123946	934.264364045435	143.988250197392	1699.47639012771	641.382564984107	161.179727274843	782.186717442716	1095.22888677225	155.744130880457	1751.13046286469	588.204350032267	148.988250197392	683.79155330471	1194.72487477168	144.986922974495	2248.93742739899	1308.88368091502	137.134876927986	2244.46610610856	975.170306505945	143.083730897085	2024.54110204689	1083.6363388848	147.988250197392	1677.01963702519
408.139787138214	142.881452368949	766.503483482579	1323.14473440692	181.30176631751	2015.24780620473	1574.84312141969	143.186804107525	2672.74641985164	1894.76669522065	159.994022524852	2971.60133917712	1356.8060559202	132.453046962692	2626.8534628151	1308.75733076957	148.995349747749	2052.09094705509	731.704076747074	130.244642811461	1302.59378433445	928.351240812441	146.464011017004	1221.30956020975	935.950746158829	143.995349747749	1704.56778152336	643.077287285852	161.22499034723	785.153929988599	1097.17819344906	155.763519670196	1756.48326757775	589.26806466213	148.995349747749	685.892075749018	1196.36487968915	144.990699495499	2253.80006274795	1310.41240961595	137.146093074189	2248.59250981834	976.316281476342	143.061156926116	2028.25207467935	1085.29275600895	147.995349747749	1681.06981859296
408.628444835432	142.897590565946	768.428948174268	1325.79466098185	181.477276617385	2021.97800832001	1576.67753594918	143.184289613716	2678.51812148346	1896.87986888362	160	2978.11471200588	1358.97399275673	132.506215130437	2633.28731399854	1310.73013984942	148.998672777103	2056.64377694803	733.375153159184	130.257457979105	1307.12799490347	930.508760581853	146.535988982996	1225.26349357454	937.565770565966	143.998672777103	1709.43286831335	644.70248769514	161.269207781713	788.001304838317	1099.01249522739	155.778781077034	1761.59555788336	590.302031457768	148.998672777103	687.897962362339	1197.83406381668	144.985595751598	2258.30980157952	1311.71549616773	137.163850576568	2252.12329122203	977.33908283159	143.04072345119	2031.65577477705	1086.78606418456	147.998672777103	1684.77756796184
409.099293544933	142.917596325812	770.383626853573	1328.27316392696	181.653899013698	2028.7282594262	1578.38075431449	143.183050304197	2684.33952733199	1898.87134882588	160.004650252251	2984.79351468786	1360.86360394673	132.542031637828	2639.12329416948	1312.45604153972	149	2060.83344521649	734.87153849116	130.26026538002	1311.28264044998	932.43487132821	146.607571617309	1228.89138255558	938.985224098245	144	1713.72411931962	646.154155297058	161.308347318458	790.564889865696	1100.59910514056	155.791743996716	1766.13339575617	591.237732725972	148.998672777103	689.702669155979	1199.04852851957	144.971570525793	2262.25350182114	1312.74139125927	137.187345582126	2254.98960767471	978.204229224704	143.023779221956	2034.69374100821	1088.07406486621	148	1688.09081035378
409.541912365692	142.938843073884	772.300219857456	1330.54420886438	181.825355479695	2035.31673342884	1579.92681105152	143.185738742489	2689.99053310469	1900.71419785705	160.011749802608	2991.3871179412	1362.39873420521	132.553086305293	2644.07170924523	1313.88109111457	149	2064.48790738531	736.118525310699	130.251573979557	1314.82029972793	934.048913849265	146.677794645342	1232.02892762324	940.107709108669	144	1717.16135978458	647.347585495404	161.338106715335	792.710777623657	1101.83441742715	155.802656078455	1769.82747004421	592.015910912504	148.995349747749	691.214755018576	1199.95034877802	144.947526746202	2265.48222332112	1313.46219968599	137.212701107848	2257.19143874138	978.889823342774	143.011749802608	2037.34372918573	1089.13492979408	148	1691.00661336637
409.94559019807	142.95927654881	774.108197287488	1332.58304080861	181.98455671695	2041.5680263929	1581.29323819691	143.19456404548	2695.24861397772	1902.38285309355	160.023779221956	2997.64123531144	1363.53511476993	132.539484056948	2647.97121188426	1314.97352431504	149	2067.51109831276	737.067286125247	130.231291731438	1317.59930079968	935.298471791661	146.745248218066	1234.58568537617	940.868779440791	144	1719.57468004841	648.227370110792	161.354670948706	794.357160846803	1102.66065075044	155.809850145445	1772.51510433696	592.594704658856	148.988250197392	692.369743388415	1200.52020399436	144.915063851928	2267.93693185257	1313.87977761221	137.235941983689	2258.79783491647	979.391874819238	143.004650252251	2039.62035883379	1089.96862971543	148	1693.5664933986
410.299741993942	142.976220778044	775.747275420612	1334.37850671251	182.124177638825	2047.3452324401	1582.46715936821	143.20894006361	2699.94027314393	1903.86134025512	160.04072345119	3003.35734242111	1364.26753763004	132.503695074407	2650.81936003569	1315.73010179331	149	2069.90326817287	737.699629898322	130.200951305239	1319.59398990674	936.170919529996	146.808004165623	1236.56288153849	941.257615009003	144	1720.93212730375	648.781846148591	161.355484221852	795.488917830402	1103.07883899337	155.810635893741	1774.16967321979	592.959575016475	148.976220778044	693.144265486861	1200.77812037156	144.876872874622	2269.648914574	1314.02708661892	137.252901202454	2259.92414385485	979.72235309904	143.001327222897	2041.55981620045	1090.59657422764	148	1695.83393906916
410.595362454043	142.988250197392	777.177932773802	1335.92727344724	182.240607491509	2052.56585843379	1583.43844926764	143.227527558715	2703.97058507308	1905.13492244995	160.061156926116	3008.4232098333	1364.63121545597	132.454798425881	2652.78151509118	1316.18232620992	149	2071.77186812924	738.03556495162	130.164893583067	1320.90460454203	936.697377967797	146.863795849117	1238.05769765291	941.313427055345	144	1721.35692768028	649.041930422127	161.341168245967	796.165946946619	1103.1452048807	155.803966145897	1774.91474450631	593.124898525806	148.95927654881	693.566208294844	1200.78286706656	144.837760862727	2270.75008397953	1313.96056741733	137.26026538002	2260.73097825726	979.906330756067	143	2043.22661630681	1091.0546216399	148	1697.88962908134
410.826130690955	142.995349747749	778.387601975686	1337.23173464486	182.33256251747	2057.2085465815	1584.20236818039	143.248421835774	2707.33986189639	1906.19374182167	160.082403674188	3012.82828769787	1364.70075500089	132.403392437003	2654.13397108162	1316.39425556214	149	2073.28990765615	738.129541933056	130.129104600526	1321.72410282285	936.949119523069	146.910413599677	1239.23205020012	941.125597677662	144	1721.10527543381	649.080053020282	161.313783319004	796.512612639129	1102.96368456748	155.790632221328	1775.00312785761	593.136499680775	148.938843073884	693.714377576654	1200.61889453986	144.803698947011	2271.46473636099	1313.75552293103	137.258785202002	2261.4168988168	979.978238458489	143.001327222897	2044.7156457749	1091.38529295153	148.001327222897	1699.82548993783
410.988372261963	142.997345554206	779.391119256572	1338.28723694565	182.40238708534	2061.30413620437	1584.7499631694	143.267452843755	2710.1383380269	1907.02468698293	160.09975498826	3016.65861101536	1364.58004898451	132.360650323738	2655.21531852518	1316.45544154317	149	2074.66198291692	738.06417430498	130.102663425828	1322.30511599818	937.029235599105	146.946199523305	1240.2844957308	940.810785404671	144	1720.52387472738	648.991901953611	161.279747595733	796.695552955101	1102.66073542793	155.774463440568	1774.77229100093	593.055176658094	148.917596325812	693.705368198612	1200.38237727786	144.78045807117	2272.06149202749	1313.49216587901	137.249293063712	2262.17279513836	979.975418722975	143.004650252251	2046.12756241565	1091.63095300659	148.004650252251	1701.71663299605
411.083944003521	142.995349747749	780.225096548904	1339.08191388008	182.453209345123	2064.90437249993	1585.07457373743	143.280786768324	2712.50728094162	1907.61695310867	160.10924712655	3020.05378725732	1364.38604992627	132.33616845969	2656.34087957351	1316.46590810703	149	2076.06954565207	737.937055656229	130.092652530613	1322.90096295105	937.050500347219	146.971570525793	1241.39920960706	940.494801283167	144	1719.97675318354	648.88129465272	161.24553445321	796.886753260967	1102.3643818776	155.761241188087	1774.57167471541	592.951672569897	148.898917788843	693.66720426897	1200.16045260905	144.772205242399	2272.81295811649	1313.23839672299	137.235959139143	2263.16457530223	979.931844118991	143.011749802608	2047.56502054325	1091.82243809994	148.011749802608	1703.61974376205
411.117140139666	142.988250197392	780.932710179763	1339.59381562212	182.48755687741	2068.04693178394	1585.16687966579	143.284594288947	2714.58679091643	1907.95655797297	160.108037137962	3023.14941271146	1364.23225015309	132.33619598454	2657.75531786089	1316.52255658455	149	2077.6463336085	737.842657180388	130.106009172858	1323.71931387993	937.118427243341	146.986922974495	1242.70937738418	940.287625348863	144	1719.77972303744	648.839133914253	161.218058138101	797.229115244984	1102.17803318867	155.755893100918	1774.69678450707	592.88934555539	148.8861026212	693.71825778866	1200.01525062281	144.78045807117	2273.93128915203	1313.04217617395	137.222612748829	2264.48649286409	979.874652831	143.023779221956	2049.10253733076	1091.97765819081	148.023779221956	1705.55202532965
411.097910187414	142.976220778044	781.553096194504	1339.8067739186	182.508078265714	2070.73934856369	1585.0288147376	143.276136516073	2716.47532092398	1908.04503354142	160.096095631992	3026.03353986893	1364.19736274679	132.363729009824	2659.57830491341	1316.68874418545	149	2079.44475491578	737.852221591209	130.144714099915	1324.8799807087	937.299305175295	146.995349747749	1244.26798903144	940.263240297313	144	1720.12302662338	648.925051413605	161.202868846825	797.800563798181	1102.16228846154	155.762992651276	1775.31412541248	592.913018045915	148.881540282327	693.935807366855	1199.97418624505	144.802371724114	2275.53530002598	1312.92690260007	137.211656422661	2266.16439123508	979.820266946522	143.04072345119	2050.78118540726	1092.10298716332	148.04072345119	1707.50067372698
411.03956995158	142.95927654881	782.1086687349	1339.71610428429	182.518073130364	2072.94433166481	1584.67939977442	143.255703041147	2718.19016247151	1907.9020200302	160.076758814826	3028.70557305278	1364.31536504178	132.415917688085	2661.7828985103	1316.98726431075	149	2081.42593241711	737.999757656788	130.205334358604	1326.38799685981	937.613275324844	146.998672777103	1246.03338561767	940.441595169243	144	1721.04601020682	649.155365589582	161.20201132925	798.604070570983	1102.3225192707	155.783693187146	1776.44093595669	593.039704467681	148.886102621199	694.345384623215	1200.024932534	144.833110610476	2277.62084508516	1312.88655124269	137.20481100202	2268.14543532392	979.774056355731	143.061156926116	2052.60079411524	1092.19340165241	148.061156926116	1709.42598360564
410.959721468951	142.938843073884	782.607542059165	1339.34618042435	182.521852154676	2074.61285775644	1584.16177247799	143.224642613818	2719.6979942708	1907.57454090963	160.058102995533	3031.10941726226	1364.56868372336	132.486055931226	2664.22314849442	1317.39617509944	149	2083.48224953186	738.27605552792	130.281499058922	1328.14673392224	938.028149083372	147	1247.88835506956	940.782310295128	144	1722.4304146051	649.498069014976	161.213590315861	799.567339364055	1102.60345170714	155.816514114655	1777.94109095451	593.252739709453	148.898917788843	694.915275556803	1200.12121815884	144.865123072014	2280.06598034639	1312.89308226715	137.201213163101	2270.31318836404	979.730676025011	143.083730897085	2054.51773178642	1092.2391572197	148.082403674188	1711.27349845277
410.875039312653	142.917596325812	783.047110473736	1338.74606399764	182.525170376856	2075.71392438774	1583.53496895924	143.186804107525	2720.93803754664	1907.12348850963	160.047906177324	3033.1603533309	1364.88977692352	132.562046687061	2666.67424407791	1317.85081319752	149	2085.4696835929	738.630014975286	130.361885937292	1329.98264425923	938.467846624762	147	1249.67028586554	941.198918631359	143.998672777103	1724.03537637762	649.885122894502	161.23315730045	800.567284760863	1102.91135702163	155.855112176798	1779.5674686124	593.51133058677	148.916269102915	695.568273292703	1200.19732200829	144.889957407075	2282.64897288059	1312.90497737793	137.199885940204	2272.50413963132	979.678392608921	143.105732463407	2056.45007935098	1092.23146175876	148.101082211157	1712.98110599953
410.800093242005	142.898917788843	783.416945642551	1337.99054784655	182.533949690697	2076.25498370918	1582.8691957763	143.146455914597	2721.843273852	1906.6210068773	160.053271419947	3034.77049787377	1365.17615565144	132.63055537289	2668.881935488	1318.25934033632	149	2087.23852582148	738.981813109209	130.435319684936	1331.68711235446	938.832084668066	147	1251.20862238279	941.576760334414	143.995349747749	1725.54957571096	650.226193425756	161.255070953394	801.45650571197	1103.1286884025	155.893469370443	1781.01550279978	593.757886700704	148.934192821633	696.199784055351	1200.18054741067	144.902153042761	2285.09988222404	1312.87564286728	137.20016074977	2274.54736845607	979.600087396543	143.125647181409	2058.29543628715	1092.16416394859	148.113897378801	1714.49644720985
410.744646730092	142.8861026212	783.708875147271	1337.16835848657	182.552930512455	2076.30965025418	1582.23208594846	143.107510119041	2722.38287283915	1906.13247849104	160.077221665416	3035.89818349317	1365.31639480444	132.679278436071	2670.61707668445	1318.52305638594	149	2088.66145363605	739.240200419109	130.489815075579	1333.06276235859	939.01982291356	147	1252.36373812062	941.796081500828	143.988250197392	1726.67035904484	650.430171791975	161.273168461042	802.104171205504	1103.14146148981	155.923747524246	1782.00434252684	593.929660971597	148.947526746202	696.704581996271	1200.00387897873	144.898663797069	2287.14550193184	1312.75825996418	137.199906620053	2276.28369851502	979.474160773107	143.142238939629	2059.94549177526	1092.03126729135	148.118459717673	1715.77843551808
410.711136229661	142.881540282327	783.920399743922	1336.36701589895	182.584592599329	2076.00560571665	1581.67651671702	143.072906728724	2722.56960487692	1905.70566408889	160.11749942147	3036.55719903548	1365.21428528533	132.69795697304	2671.72119970338	1318.55930956574	149	2089.66104206909	739.325038368244	130.516925192975	1333.96484323704	938.954279725348	147	1253.05770486368	941.762468699707	143.974893555147	1727.15975091026	650.427118661282	161.282026077843	802.420391226999	1102.86625710803	155.94069175348	1782.32709073252	593.974234539431	148.952441556088	696.997362918543	1199.62093304905	144.88074007835	2288.5592291697	1312.5140672032	137.20016074977	2277.58992471116	979.279888044361	143.155948052887	2061.30336339934	1091.83044108651	148.113897378801	1716.80286018964
410.697966483604	142.886102621199	784.056050441693	1335.66238994374	182.629704444909	2075.50663054567	1581.23460869351	143.045373703441	2722.45578170338	1905.36806858534	160.166889389524	3036.81271277896	1364.81058943601	132.684623048471	2672.12278224719	1318.32122479317	149	2090.2154475029	739.184419016371	130.512362854103	1334.32077866801	938.598405856488	147	1253.28221517872	941.421460323965	143.954626296559	1726.88778614404	650.181938718645	161.278704727177	802.373052831156	1102.26574283621	155.942876493951	1781.89296940138	593.857011259931	148.947526746202	697.028822817392	1199.00892485086	144.853544085403	2289.19642731539	1312.11353994245	137.201213163101	2278.39227982962	978.998343857866	143.16821661242	2062.29563023331	1091.55705911564	148.102409434054	1717.5595195556
410.697704625743	142.898917788843	784.128117979201	1335.10518487668	182.686216680996	2074.98759827666	1580.9114952967	143.025106444853	2722.1264272092	1905.12023555365	160.215005782402	3036.77489653484	1364.09790513903	132.643105982898	2671.84469216209	1317.80597029328	149	2090.35583385605	738.805424681965	130.476999907935	1334.1399660997	937.964514375229	147	1253.09638693151	940.771452993614	143.927093271276	1725.86451616423	649.700464043689	161.26332134843	801.994493072227	1101.35559285634	155.932865598736	1780.74720154623	593.56904162753	148.934192821633	696.796465311552	1198.18202146257	144.823618472186	2289.02367857803	1311.55369282041	137.204536192454	2278.68480239813	978.625733365586	143.181207403236	2062.8951478505	1091.21566271123	148.087053926439	1718.06082959607
410.70236274408	142.917596325812	784.156117038573	1334.7163451664	182.749379713391	2074.60675380471	1580.68613757815	143.013077025505	2721.67806264622	1904.94228176266	160.251035633442	3036.57586622594	1363.12129879763	132.583273638428	2670.9866809604	1317.05609334445	149	2090.15264020015	738.215278551143	130.417968370865	1333.49965383451	937.10831919607	147	1252.60761411045	939.859336498676	143.893817103856	1724.21453149703	649.027831720432	161.237024504179	801.365071250639	1100.20287360749	155.916269102915	1779.04248305362	593.127787049204	148.916269102915	696.33901720891	1197.18815918159	144.799136608139	2288.10961640274	1310.85734955362	137.211910552378	2278.51563672279	978.174198351595	143.197768161837	2063.11564412526	1090.82030841358	148.072906728724	1718.3359415547
410.70208020637	142.938843073884	784.164617732467	1334.4879930811	182.814388725609	2074.48343392516	1580.52050563754	143.009300504501	2721.20358873535	1904.79928112264	160.267720042641	3036.35155343339	1361.97066378158	132.517279515981	2669.71311360749	1316.15230098733	149	2089.70788912155	737.475139866683	130.34528944147	1332.53025148482	936.11941116362	147	1251.94964950207	938.772179425062	143.858194337653	1722.1476171362	648.237882287792	161.203395865745	800.594526157658	1098.91285740514	155.898917788843	1777.00345982089	592.573439373789	148.898917788843	695.722816236469	1196.10355098129	144.783693187146	2286.61445228879	1310.07586942008	137.223685842009	2277.98110470609	977.67638136016	143.219123503136	2063.01534617255	1090.39831979555	148.064502673146	1718.43108774082
410.691290096541	142.95927654881	784.182223813308	1334.39495593094	182.874340400738	2074.69647648932	1580.37412984993	143.013077025505	2720.78666634455	1904.66185378618	160.261222151828	3036.23093343073	1360.76246279464	132.458426660996	2668.23980772438	1315.1977845174	149	2089.15339829291	736.665569796387	130.271488163707	1331.39466427112	935.100823501749	147	1251.26367189468	937.619720423228	143.824945695083	1719.9161161345	647.41577834528	161.166370632599	799.798672751044	1097.60799357551	155.886102621199	1774.88341163748	591.961830985323	148.8861026212	695.031478635777	1195.02435654017	144.780370157792	2284.75477162738	1309.28488911907	137.239556978063	2277.19896006958	977.179957729105	143.244119316935	2062.677042498	1089.98962173341	148.064502673146	1718.39979276507
410.66602768728	142.976220778044	784.233336685229	1334.40205021299	182.923747524246	2075.26810619152	1580.21249503562	143.023779221956	2720.4768928052	1904.50770571111	160.233678757149	3036.30254511152	1359.61744669499	132.415131939789	2666.7877666667	1314.29574564157	149	2088.62242004832	735.871018547653	130.207519099076	1330.25288776021	934.151196183113	147	1250.66929517151	936.516256264906	143.799136608139	1717.7658553897	646.646639508474	161.129511685363	799.07741226832	1096.41097759994	155.881540282327	1772.91626464825	591.355830434486	148.881540282327	694.349868511064	1194.0505912676	144.78738680553	2282.77338320502	1308.57168119154	137.257719836966	2276.3026163523	976.739851923882	143.27053500461	2062.20247546048	1089.64527624462	148.072906728724	1718.30613738233
410.628123985285	142.988250197392	784.333352708463	1334.48044318174	182.959820723185	2076.16241174669	1580.02703999616	143.04072345119	2720.28537055458	1904.34311130783	160.191212785855	3036.60322639832	1358.63640114152	132.393488406702	2665.56284941452	1313.53136942032	149	2088.23746372528	735.164117178568	130.160331106252	1329.2488817205	933.34497713523	147	1250.25503291894	935.558214017515	143.785020410043	1715.89828555737	645.99705331071	161.09680792259	798.502887577628	1095.41916503208	155.886102621199	1771.28425221125	590.811359730004	148.886102621199	693.750584970988	1193.26555097882	144.801166473127	2280.90074583148	1308.01350809383	137.276517286932	2275.41287565304	976.403788132583	143.2951958239	2061.68981112452	1089.41109283063	148.087053926439	1718.21211786689
410.581681857896	142.995349747749	784.485446813526	1334.60441537358	182.982272722244	2077.29449018627	1579.82967495752	143.061156926116	2720.19720641449	1904.1915476877	160.142256095084	3037.12079848153	1357.8901888208	132.391358280054	2664.71756349859	1312.96318322569	149	2088.0905082924	734.59620568524	130.13163707441	1328.48380398831	932.727321302951	147	1250.0637968382	934.816766375848	143.785020410043	1714.44958814275	645.5097046399	161.070457430618	798.11086871351	1094.69839479275	155.898917788843	1770.10193563786	590.372538623196	148.898917788843	693.286900470084	1192.72351161285	144.817470886464	2279.31108176075	1307.66443074087	137.293863793829	2274.60678517058	976.203562341071	143.315110541901	2061.20866384402	1089.32184277324	148.102409434054	1718.15785312868
410.532269172166	142.998672777103	784.673524071444	1334.7476482957	182.994022524852	2078.51277051054	1579.64525252717	143.082403674188	2720.1450942705	1904.08242938118	160.095358727784	3037.76494007437	1357.40419361371	132.405505408196	2664.32093473015	1312.61028729095	149	2088.2219408572	734.191664980582	130.11925992165	1328.00370191445	932.303967937599	147	1250.08597656872	934.320253923844	143.799136608139	1713.48728618225	645.192884006161	161.053800476695	797.903037601834	1094.26400124175	155.917596325812	1769.41649242472	590.059678134933	148.917596325812	692.987996467582	1192.44551879048	144.832660177739	2278.10179878397	1307.54719896521	137.308609572228	2273.90659592695	976.151161729064	143.329043047154	2060.79318772823	1089.39475402708	148.113897378801	1718.1547011766
410.483134424488	143	784.859792311432	1334.86956527782	182.997345554206	2079.60214864544	1579.48991270043	143.101082211157	2720.0105982447	1904.02684760161	160.057123506049	3038.36814197675	1357.15228164452	132.427937818065	2664.31825084026	1312.4459693904	149	2088.59114887769	733.940438843507	130.117482266015	1327.77814022364	932.039838498306	147	1250.24571060716	934.057205111745	143.823618472186	1712.98653552353	645.023840572537	161.046231221015	797.837486660145	1094.08633242087	155.937515850987	1769.18647877733	589.8698518303	148.937515850987	692.848219677572	1192.40652693225	144.844689597087	2277.26270791123	1307.63985244339	137.320638991576	2273.26027348039	976.233153658914	143.337583220809	2060.42222643032	1089.61589717348	148.118459717673	1718.16402844735
410.433337975021	142.998672777103	784.983853303354	1334.90384852517	182.994022524852	2080.28326757215	1579.35911816335	143.1138973788	2719.61720705392	1904.00556433105	160.029756697104	3038.68350575569	1357.0576249009	132.451052834923	2664.51743964554	1312.39801357312	149	2089.05999529658	733.801481726843	130.119874853948	1327.69318308531	931.861305630627	146.998672777103	1250.39642803243	933.971968085824	143.853544085403	1712.82796470953	644.944388612979	161.047823001547	797.825808757199	1094.08681672384	155.954626296559	1769.27710921018	589.770224221498	148.95462629656	692.817086901509	1192.54352949355	144.852216862506	2276.66092897223	1307.88206744834	137.328609769871	2272.52832721255	976.415353500592	143.340639189219	2060.01380132473	1089.94339462297	148.113897378801	1718.08595961602
410.373947311311	142.995349747749	784.967061501259	1334.74604929604	182.982272722244	2080.21857970685	1579.20421156475	143.118459717673	2718.73264828678	1903.94724918017	160.013077025505	3038.39911221054	1356.99662413086	132.469371659969	2664.58432016783	1312.35606382896	149	2089.38850062301	733.702279982915	130.11978694057	1327.54709711957	931.658523022586	146.994022524852	1250.32258501903	933.965473725304	143.882067301247	1712.78826305837	644.863560023713	161.054057375759	797.726596200028	1094.14113906297	155.964470975436	1769.44659107737	589.699335686592	148.964470975436	692.793912686284	1192.75419544769	144.855018701199	2276.04969637769	1308.17468387458	137.3316967379	2271.49903743809	976.644181509814	143.338796288258	2059.43729350092	1090.3028854925	148.101082211157	1717.76401253665
410.289611560553	142.988250197392	784.718915864153	1334.26074788161	182.957166277391	2079.0345267372	1578.93906427574	143.1138973788	2717.08695066619	1903.73737459652	160.004650252251	3037.16246671975	1356.80821982518	132.480026483505	2664.06541248658	1312.17952073194	149	2089.24989666922	733.541459182264	130.1138973788	1327.05808113917	931.293322597312	146.982272722244	1249.74619324096	933.908029578911	143.901986826423	1712.54469983907	644.666969329999	161.058624452232	797.347060128203	1094.09471725595	155.963143752539	1769.3507692678	589.575304412971	148.963143752539	692.630159336482	1192.90855492453	144.85339042486	2275.0824652095	1308.39442965973	137.328373708547	2269.90070595162	976.854016394767	143.3316967379	2058.51789393674	1090.59660706738	148.082403674188	1716.99034399552
410.158257231369	142.976220778044	784.143361890663	1333.29016243633	182.911792573951	2076.34757991363	1578.44278469304	143.101082211157	2714.38636340724	1903.22793794103	160	3034.60963611901	1356.30355809373	132.484444491931	2662.4119924382	1311.70696767102	149	2088.24494475156	733.195421801244	130.102409434054	1325.87772981431	930.606130177438	146.958493500288	1248.34596388155	933.646122569135	143.907925370222	1711.69202064124	644.223335829796	161.054381284819	796.452276744242	1093.77202354995	155.948648821412	1768.55825529627	589.299915617519	148.948648821412	692.139930322702	1192.86552924054	144.844596121488	2273.37309745184	1308.41293686555	137.316859967263	2267.46485048932	976.975385432901	143.31818719016	2057.08161428552	1090.71717603948	148.061156926116	1715.55232261345
409.9539109063	142.95927654881	783.149388376665	1331.67759586359	182.838885845226	2071.80626290189	1577.58233468026	143.082403674188	2710.34618639101	1902.26201710151	159.994022524852	3030.40157135516	1355.29126330098	132.486581859488	2659.05303054556	1310.77952321644	148.998672777103	2085.95572751952	732.53106492956	130.087053926439	1323.63301618266	929.437801521895	146.917770049098	1245.79377105563	933.024203289899	143.897336574172	1709.78460039437	643.40169872658	161.035013174929	794.793370908702	1093.00189654664	155.919788573231	1766.59888303415	588.775853719023	148.919788573231	691.12562881574	1192.48730838553	144.827110417653	2270.54279346206	1308.11185636189	137.29685976962	2263.96014992843	976.942811622467	143.29685976962	2054.97453320107	1090.56071063691	148.039396228293	1713.25895202254
409.652552714661	142.938843073884	781.666351542887	1329.29963094277	182.731375726185	2065.14384973241	1576.23900510442	143.061156926116	2704.74312810059	1900.70596370015	159.982272722244	3024.28556156526	1353.60514764121	132.492440491211	2653.47404361412	1309.26703214729	148.995349747749	2082.00678796675	731.422964392559	130.072906728724	1319.9739174315	927.651239434681	146.856613122982	1241.80025820012	931.902617165647	143.870317498639	1706.39858114065	642.089990840102	160.994549543773	792.142751634982	1091.63529403135	155.8760898261	1763.03074731395	587.918764972919	148.8760898261	689.410171015534	1191.65809289559	144.79798867075	2266.28578286474	1307.40184047072	137.267886121038	2259.24138918444	976.701668243473	143.267886121038	2052.09539457696	1090.04222908716	148.019128969705	1709.98254436897
409.2363798062	142.916269102915	779.650400978982	1326.09242876192	182.584919811588	2056.21714743106	1574.33356108816	143.04072345119	2697.43381713868	1898.47419299579	159.958493500288	3016.11015829378	1351.13408111379	132.506058562605	2645.31163525832	1307.09088637879	148.986922974495	2076.1355023438	729.77472556066	130.064502673146	1314.63260567756	925.158254516717	146.774209448794	1236.16605416667	930.181950445755	143.829764863447	1701.19856697813	640.213985862181	160.930585216742	788.338552651587	1089.57491688497	155.816687837942	1757.51566703353	586.675374540146	148.818015060839	686.872036613153	1190.30369531141	144.753775973867	2260.41860731381	1306.24038911067	137.231379644816	2253.2781112643	976.216810777175	143.231379644816	2048.40816091304	1089.1133890814	147.998672777103	1705.68223634629
408.700095265951	142.894267536593	777.096157614574	1322.07207153577	182.398115704063	2045.05141097401	1571.84325462314	143.023779221956	2688.40224562809	1895.54792151733	159.917770049098	3005.87465170186	1347.84518366566	132.528941405211	2634.40983459372	1304.24458212646	148.970243302896	2068.23493980496	727.540413704403	130.064502673146	1307.47124965483	921.94105507156	146.673127237637	1228.81888888075	927.821562820515	143.782895020997	1694.00285141876	637.754918379689	160.843797955338	783.321027599065	1086.79023024977	155.742715744182	1749.88497478504	585.034200146582	148.748693219329	683.473776853017	1188.40404744466	144.693560712563	2252.92257349093	1304.63968490494	137.189463360493	2246.18199625678	975.479144927434	143.189463360493	2043.95672241703	1087.76921170793	147.974893555147	1700.42511491837
408.052720197569	142.874352818591	774.044067190262	1317.34665560559	182.173473090245	2031.86652400401	1568.8177640288	143.011749802608	2677.78511703319	1891.99042820835	159.856613122982	2993.75332560236	1343.79627023452	132.559247014291	2620.88194866814	1300.79913877589	148.941549271054	2058.39564611353	724.735871716298	130.072906728724	1298.52556586453	918.063333548781	146.55790263594	1219.84793561185	924.848625510034	143.737979682022	1684.83394589402	634.759082857497	160.738153405309	777.158932174599	1083.32790390008	155.655749731121	1740.19477834099	583.029284970486	148.672149785979	679.277135617872	1185.99928694911	144.619181533966	2243.94704189911	1302.66657633812	137.144887823202	2238.18458693581	974.504190351099	143.144887823201	2038.85125746998	1086.04951439377	147.944203716848	1694.37142061665
407.317993986753	142.857761060371	770.584247435382	1312.10568869119	181.917770049098	2017.07583316705	1565.37170309571	143.004650252251	2665.8889181647	1887.93777355433	159.774209448794	2980.10715959393	1339.13968512222	132.591259475828	2605.12566981225	1296.90491879314	148.898663797069	2046.91722887111	721.447608437598	130.087053926439	1288.02312263542	913.674204755002	146.436119888913	1209.51240616862	921.367528917231	143.702616735854	1673.9443918519	631.343054752503	160.619059562056	770.055787393957	1079.32042090606	155.559229858837	1728.74555006303	580.744523251599	148.594758883401	674.443814992716	1183.19463198222	144.534752801963	2233.7964061275	1300.43879450916	137.101880377306	2229.61252197692	973.338580381438	143.101880377306	2033.25515954615	1084.03984137728	147.901986826423	1687.7567160244
406.532215520905	142.84537917001	766.847433879213	1306.60631768987	181.641633533025	2001.25544467361	1561.68019505947	143.001327222897	2653.16549960864	1883.59191316436	159.673127237637	2965.457998769	1334.10293043234	132.617854311069	2587.7687266763	1292.77098675067	148.841343850058	2034.26394054093	717.824037239359	130.102409434054	1276.35887929245	908.990366075874	146.315122959755	1198.21369402267	917.547833247807	143.682610975989	1661.79522934893	627.681756503647	160.494220846619	762.331229706748	1074.97026988564	155.45814764768	1716.05685380019	578.300311764458	148.522650320826	669.216563927477	1180.14356036309	144.449196914418	2222.89593258428	1298.10675659899	137.064502673146	2220.84793383523	972.049660878069	143.064502673146	2027.36492280998	1081.85556922795	147.848443400415	1680.85905909526
405.739827561729	142.837760862727	762.997639403947	1301.14675532349	181.358366466975	1985.09670586285	1557.96284859115	143	2640.17677507357	1879.20424103107	159.560557081733	2950.45039952957	1328.96736100942	132.632403786447	2569.62645697075	1288.64307467545	148.771930966684	2021.03012097972	714.062880633851	130.1138973788	1264.06625931408	904.276802210023	146.20201132925	1186.46336771471	913.60840640387	143.680588977087	1649.01319260694	623.989467758427	160.370395886323	754.383200913278	1070.53113423565	155.359693689872	1702.80946643581	575.841576122173	148.461574067178	663.888461309734	1177.03939710885	144.371352520189	2211.74095473816	1295.84411091808	137.035529024564	2212.28750888476	970.726913146943	143.035529024564	2021.39359881039	1079.63449792622	147.783960386032	1673.96620590222
404.988441268505	142.835192651623	759.208730126429	1296.03111662564	181.082229950902	1969.32151047957	1554.45398457842	143	2627.51776696311	1875.04359761505	159.446747616311	2935.76592392467	1324.0328639787	132.631976071386	2551.6011684164	1284.77073302966	148.695841094557	2007.86249855096	710.384038330459	130.118459717673	1251.75189645371	899.812262247052	146.102663425828	1174.82229448806	909.790754147883	143.694736174802	1636.30236030178	620.494780678987	160.253686416899	746.633473755849	1066.27602430199	155.271693311394	1689.75132498607	573.518174801803	148.415253911699	658.760413656874	1174.08528647207	144.309757509616	2200.84217491154	1293.81492542796	137.016400054859	2204.30056366537	969.463916459089	143.016400054859	2015.55255851958	1077.51299866613	147.714112546688	1667.34452590124
404.319788522005	142.837760862727	755.649755395326	1291.53181240492	180.826526909755	1954.61085196043	1551.37363663216	143	2615.75880988507	1871.35899370199	159.344600040119	2922.06106984532	1319.58660208265	132.615293340875	2534.58641068014	1281.3857204735	148.620497416007	1995.39144137987	707.006751362343	130.1138973788	1240.03008171172	895.861787339507	146.021073024785	1163.83948385816	906.328873562024	143.720517736897	1624.36113136252	617.411303098391	160.148993901077	739.476676113482	1062.46562207965	155.201467154875	1677.60174202329	571.467551904	148.38495304022	654.103052403986	1171.4717532257	144.269575533028	2190.66144121681	1292.16038887645	137.005977475148	2197.18059081671	968.351688161762	143.005977475148	2010.02592957114	1075.61355501157	147.645581143184	1661.20470729375
403.766558855992	142.84537917001	752.462488726195	1287.86243954743	180.601884295937	1941.53223286015	1548.89860406363	143	2605.37264068445	1868.35159265743	159.267297050918	2909.88140956185	1315.8698022823	132.58676288412	2519.38152879927	1278.67180892517	148.551863109593	1984.16980469509	704.121478524064	130.101082211157	1229.45625327069	892.642796180283	145.959102825523	1153.99939747317	903.420020332208	143.750684218612	1613.79345484182	614.908360258139	160.059777951843	733.230979177155	1059.31168510252	155.155136679626	1666.96117485232	569.795588551386	148.370116269583	650.126588571091	1169.35845237918	144.251687551529	2181.58065997603	1290.98231192085	137.001327222897	2191.13710339227	967.466969701951	143.001327222897	2004.9693556549	1074.02937385957	147.584859660273	1655.69661100315
403.346224227582	142.857761060371	749.748295092035	1285.14490368898	180.415080188412	1930.48415534843	1547.12681274488	143	2596.68339249344	1866.13141249432	159.22561682792	2899.60389747097	1313.04897147148	132.550820241037	2506.59000052901	1276.7423123883	148.49499833292	1974.60313233496	701.865472480288	130.082403674188	1220.4603137543	890.301525206557	145.915317843702	1145.66422606657	901.201251389682	143.77888241872	1605.04583566616	613.096457767634	159.988076474105	728.107846777639	1056.95648360636	155.13498282144	1658.24802381836	568.568455907891	148.367339917913	646.960035841406	1167.85600384893	144.252873143753	2173.86800764531	1290.33436726325	137	2186.28323077252	966.864125858591	143	2000.49765236086	1072.81930132907	147.538783314741	1650.90263967805
403.06243183496	142.873025595694	747.562391170729	1283.41361029225	180.268624273815	1921.68337235563	1546.08151493921	143	2589.85538037937	1864.72273545007	159.224289605023	2891.42311845665	1311.20245490919	132.513435295967	2496.58353599025	1275.63322079662	148.451734195476	1966.92773127798	700.312114562285	130.061156926116	1213.31555165318	888.900486351279	145.8861026212	1139.0530564228	899.73580210287	143.79798867075	1598.36207513713	612.014751360884	159.935774036304	724.200736752528	1055.45634009488	155.138736624767	1651.66283654416	567.803085924253	148.371093721241	644.643283746462	1167.01453311599	144.266781201282	2167.66360182552	1290.21623747749	137	2182.63294420185	966.566796141904	143	1996.67696230421	1072.00025438132	147.50992306656	1646.83849731841
402.90616827295	142.889617284342	745.915256605537	1282.61623124335	180.161114154774	1915.16671590228	1545.70656844186	143	2584.89330311321	1864.0587271718	159.262646798667	2885.34725856884	1310.32047276711	132.477271055164	2489.46342835535	1275.30319607779	148.420336666237	1961.19512609449	699.466652202817	130.04072345119	1208.11140614491	888.417755294863	145.866467450365	1134.22378596395	899.013070670782	143.804658418594	1593.7707707679	611.634168497764	159.902502676058	721.485086119657	1054.78689328985	155.159960655163	1647.18311990436	567.473213114978	148.374940245121	643.133420963845	1166.82331647542	144.285371824873	2162.97429340219	1290.58117635137	137	2180.10727454997	966.569944336511	143	1993.51776204245	1071.55190681522	147.497805733834	1643.46005377994
402.858689860313	142.904519300307	744.774552191272	1282.63258085349	180.088207426049	1910.80798693319	1545.88450800817	143	2581.65160909296	1864.00316996624	159.331523014614	2881.21272708543	1310.3090299841	132.444005257139	2485.07088323963	1275.63998326643	148.396177448418	1957.28419313608	699.269183223362	130.023779221956	1204.75710524907	888.753095392556	145.849246373738	1131.07831243855	898.951615431678	143.798100342837	1591.10039068507	611.864979709736	159.887517757475	719.839847875302	1054.84617625053	155.189463360493	1644.59266826587	567.513196447863	148.372949245838	642.318555181663	1167.21580118752	144.300701486325	2159.69561029138	1291.34672643655	137	2178.56060049104	966.839477833243	143	1990.98647098262	1071.42321264896	147.499125228587	1640.68146586683
402.898148139805	142.915063851928	744.07521206425	1283.30027063142	180.041506499712	1908.35230056401	1546.46187633266	143	2579.86909871545	1864.37956613408	159.416990919207	2878.72393671624	1311.00431783849	132.411106919659	2483.01257517295	1276.47557381557	148.373211499608	1954.92555912944	699.604050690833	130.011749802608	1202.99837534881	889.740540257891	145.82843764055	1129.38187520513	899.413632122785	143.778876856499	1589.99745095913	612.571757571503	159.8861026212	719.061179349177	1055.47658571108	155.216306812854	1643.50584714774	567.829067524148	148.359867413159	642.031463952538	1168.07642475095	144.306595855269	2157.61829981232	1292.40473149079	137	2177.79153929419	967.318540551042	143	1988.99510888279	1071.53833850947	147.506852246561	1638.37961756554
403.000609325235	142.917225874723	743.726012135088	1284.43563689608	180.011749802608	1907.45001108778	1547.27502402492	143	2579.2029385476	1865.00115357311	159.502106352788	2877.49255867737	1312.19273162511	132.374945807342	2482.70847770975	1277.60317570971	148.345818498218	1953.73176476414	700.316613281898	130.004650252251	1202.45267174769	891.170077385652	145.79798867075	1128.7893459501	900.227275517743	143.752347768423	1589.97487132853	613.593194875102	159.894267536593	718.891666194357	1056.48824947723	155.232357096474	1643.42311864246	568.311460113554	148.33423747378	642.070658295574	1169.25756771308	144.298710487042	2156.45748154299	1293.63389291943	137	2177.56784089727	967.931954415637	143	1987.41629795303	1071.80666526746	147.513944068774	1636.41172400013
403.140854403134	142.910413599677	743.623285223406	1285.8487218683	179.988250197392	1907.694255795	1548.16407905072	143	2579.28047024099	1865.6874094339	159.570463811809	2877.09746370947	1313.63583787203	132.332488048418	2483.47876420527	1278.80775847452	148.310460289651	1953.26099064227	701.230938926619	130.001327222897	1202.66492836032	892.809738677334	145.753775973867	1128.89834548081	901.203529371465	143.722274403168	1590.47914171384	614.7589071442	159.904519300307	719.04960065367	1057.68002126703	155.232357096474	1643.79934175148	568.8477725472	148.29685976962	642.224699524017	1170.59667357978	144.276136516073	2155.88147021362	1294.91333170255	137	2177.64094064553	968.597681190028	143	1986.08973518657	1072.13095733837	147.513856155396	1634.62238611705
403.295377157866	142.894096720595	743.65798409248	1287.36247133139	179.959820723185	1908.65285494527	1548.99460772658	143	2579.73242368175	1866.28918941807	159.609575823704	2877.11952569816	1315.09925894777	132.282113991221	2484.61257964441	1279.89071052105	148.266670570228	1953.06211529995	702.170417190185	130	1203.15834124605	894.433296081034	145.693560712563	1129.29060480115	902.167068298652	143.692865798616	1590.96747872191	615.91373151505	159.90908637678	719.265146989372	1058.87154131415	155.214979589957	1644.12035012654	569.339837808974	148.250508614521	642.299556335254	1171.93573760256	144.241586843051	2155.55209830684	1296.13330542388	137	2177.77455071063	969.235117921732	143	1984.84292183607	1072.41930164199	147.501940136449	1632.8612506018
403.441488038825	142.870488314637	743.721509057613	1288.82516971908	179.917770049098	1909.89435104881	1549.66556132829	143	2580.21122641473	1866.69698718227	159.612144034807	2877.16524338606	1316.378163263	132.225536559432	2485.46023763212	1280.69333381827	148.217104979004	1952.72951500429	702.979610081856	130	1203.49577123242	895.845851325578	145.617854311069	1129.58592396212	902.972447212684	143.666827891256	1590.98614118493	616.931023019286	159.900825819865	719.31113564818	1059.91806592786	155.183485885345	1643.97606073157	569.712613772276	148.199885940204	642.146051373107	1173.14200086718	144.198833526873	2155.175985807	1297.20788089009	137	2177.78182986586	969.774772690945	143	1983.52440313422	1072.59706407818	147.476297265843	1631.00982384921
403.560354841336	142.842724724216	743.714280514409	1290.12221883642	179.856613122982	1911.02996877451	1550.11869751501	143	2580.42446570874	1866.85317811973	159.578082119091	2876.90167519871	1317.33190208432	132.167339822261	2485.52236710941	1281.12451500511	148.165584884303	1951.95970628358	703.546796974996	130	1203.34087096937	896.912800893695	145.530102549712	1129.49480944602	903.521718065624	143.646545643137	1590.23628609037	617.72679282539	159.874884575113	719.036394768314	1060.72758909166	155.143560600305	1643.11558882555	569.9249551682	148.149538075452	641.679068584556	1174.12251293581	144.153555464955	2154.53890443931	1298.08135541808	137	2177.54321618724	970.167185107789	143	1982.025479621	1072.61367873233	147.436822531005	1628.99403999243
403.638987487169	142.81573310396	743.559621978204	1291.18373763941	179.774209448794	1911.75525374358	1550.33692563016	143	2580.16701414828	1866.74792191876	159.513161020252	2876.0932889983	1317.89611183075	132.113630179914	2484.51745350953	1281.17133412303	148.117932698753	1950.59480528502	703.816550880594	130	1202.49919000319	897.575123067936	145.436119888913	1128.85418567853	903.77456928491	143.633551723836	1588.61930741438	618.268271819333	159.829594047449	718.384941243546	1061.26607567236	155.101880377306	1641.48498360866	569.972520249598	148.103207600203	640.889492508488	1174.83342270918	144.110833148395	2153.54491077125	1298.73124305101	137	2177.02949635244	970.386987175064	143	1980.30941235577	1072.44771986089	147.386969664469	1626.80408520474
403.670201644614	142.791949144403	743.206337851645	1291.98717054781	179.673127237637	1911.87527980134	1550.33964170801	143	2579.32152937215	1866.4134324678	159.42760520228	2874.60134828848	1318.09135216974	132.069152925397	2482.4349081209	1280.89779472449	148.077556980975	1948.65244739644	703.794336607285	130	1200.94979093598	897.855916525125	145.342923045982	1127.65545472372	903.748790463338	143.628382784233	1586.2464027208	618.572342077151	159.767280714433	717.403990626726	1061.55528542078	155.064502673146	1639.22677649785	569.887106421047	148.064502673146	639.847490793362	1175.28535151533	144.074233951621	2152.22539580368	1299.17426331986	137	2176.30423661834	970.437250241262	143	1978.41716210771	1072.11328591647	147.329936992768	1624.4983522347
403.656714764925	142.774056355731	742.643666966026	1292.55600301729	179.560557081733	1911.34873604303	1550.17401786534	143	2577.89423201588	1865.9126926825	159.335037677756	2872.42906457201	1318.01429779274	132.036856247461	2479.51520129016	1280.429976044	148.046700926337	1946.3094402092	703.54613924984	130	1198.83948324213	897.854062328006	145.257284255818	1126.03721204162	903.513331816282	143.632159305237	1583.41405521971	618.701744663328	159.695841094557	716.235241834274	1061.66249102076	155.035529024564	1636.64626760353	569.728254937229	148.035529024564	638.687938478215	1175.53796670472	144.045373703441	2150.736868029	1299.461954228	137	2175.52112350147	970.350426719459	143	1976.47031422307	1071.65722134036	147.270016317258	1622.20210128568
403.607838816195	142.762975495821	741.903505683088	1292.95656680728	179.446747616311	1910.28812442586	1549.91202459427	143	2576.01363006715	1865.33394247518	159.247792117528	2869.72028581951	1317.81784048984	132.016400054859	2476.21915879898	1279.93384925069	148.025106444853	1943.8744568545	703.182847971138	130	1196.45864943979	897.725330278917	145.183312162058	1124.2638570323	903.176439144659	143.64292669739	1580.55194436768	618.753820521543	159.625147668257	715.091390321093	1061.68733966288	155.016400054859	1634.16114287223	569.571653459157	148.016400054859	637.588680139258	1175.68515095682	144.025106444853	2149.32515480517	1299.66800267595	137	2174.88843398389	970.177752753465	143	1974.64466563792	1071.14828351036	147.211910552378	1620.08572906134
403.540118044586	142.757899207198	741.065788582431	1293.2828775814	179.343272817222	1908.9606892283	1549.63520655985	143	2573.93905089749	1864.77122668763	159.176383427698	2866.76969458892	1317.69485435755	132.005977475148	2473.1617388671	1279.59429937285	148.011749802608	1941.74881378158	702.847233763914	130	1194.20047713847	897.663246943024	145.1239101739	1122.68873125449	902.877693858157	143.657512397223	1578.16413728633	618.851260190407	159.564940135098	714.22609005049	1061.75511090715	155.005977475148	1632.24084890154	569.503157835427	148.005977475148	636.745695219318	1175.83731747799	144.013077025505	2148.28505836653	1299.87698743885	137	2174.63071525688	969.982278521679	143	1973.14185607884	1070.66798532405	147.159532940102	1618.3396714775
403.474293059448	142.758325243571	740.243702538797	1293.64648398168	179.262646798667	1907.73815633184	1549.43070066335	143	2572.01405534422	1864.31707443178	159.126442647784	2863.96949041353	1317.8450428567	132.001327222897	2471.00576605358	1279.5826464371	148.004650252251	1940.35160903828	702.691936538706	130	1192.49558482092	897.865384584342	145.080211426769	1121.69416435602	902.766452465944	143.670861311324	1576.74912229032	619.124642884967	159.524755030023	713.896308394684	1061.99800583405	155.001327222897	1631.33624801485	569.604786299534	148.001327222897	636.344824277552	1176.10351430192	144.010627727398	2147.91326251008	1300.16940711862	137	2174.95782387816	969.826979667158	143	1972.15699172833	1070.29897391752	147.11813784644	1617.15032670292
403.431147627486	142.760979330225	739.571464151299	1294.15884433727	179.213867025312	1907.05052262029	1549.37803093264	142.998672777103	2570.6256090388	1864.05090542707	159.099174180135	2861.76210811642	1318.44945176076	132	2470.36945002434	1280.03479928741	148.001327222897	1940.06191615921	702.857989990104	130	1191.7518738169	898.5078836211	145.051351178588	1121.63662896009	902.985317244509	143.678583522124	1576.73398139468	619.695642663584	159.510184924421	714.327115509166	1062.54524988338	155	1631.82162452919	569.946304746277	148	636.536914045937	1176.57438603588	144.017727277756	2148.46736576276	1300.61219044289	137	2176.03831110286	969.767141564001	143	1971.8558457435	1070.11372673211	147.09063400648	1616.68101078564
403.430689687801	142.763519670196	739.183016410875	1294.91644269706	179.201837605964	1907.32222237849	1549.53945233184	142.995349747749	2570.14981310146	1864.02692339934	159.09091362322	2860.57536645306	1319.64936772258	132	2471.74295614642	1281.03542549018	148	1941.16394267497	703.457587881127	130	1192.29965868864	899.720342710346	145.038183470358	1122.79723419881	903.649233756697	143.677777489888	1578.4042654609	620.661592692168	159.523000092065	715.673807768329	1063.50048433683	155	1633.93577979485	570.574560751426	148	637.412123183181	1177.30409735342	144.035529024564	2150.13363237191	1301.23698618642	136.998672777103	2177.97985104275	969.836261402326	142.998672777103	1972.35711678021	1070.16192910607	147.080902728005	1617.05734693155
403.487129133524	142.763259850162	739.195735035201	1295.98951833212	179.226573599728	1908.92206050171	1549.95174440916	142.988250197392	2570.90326773134	1864.26896318465	159.095480699693	2860.76724308011	1321.51988838919	132	2475.41756049648	1282.60550919447	148	1943.80601743915	704.556152489937	130	1194.34645850512	901.565228768343	145.040179276815	1125.34000454269	904.827380893866	143.669260033908	1581.88305237193	622.080091196779	159.560811073508	718.008674564445	1064.93250478709	155	1637.76932556796	571.508272858953	148	638.99602424406	1178.31010799857	144.065829896043	2152.98982731341	1302.04682045027	136.995349747749	2180.79740627538	970.047964439314	142.995349747749	1973.70147377204	1070.47026138357	147.090936340896	1618.34371173047
403.610500961309	142.75911579904	739.688886488145	1297.4228300889	179.283443114002	1912.11147167791	1550.62878705171	142.976220778044	2573.08518047627	1864.77964549443	159.105732463407	2862.56092796729	1324.06142597907	132.001327222897	2481.45239217223	1284.69977928623	148	1947.98146648525	706.164683844866	130.001327222897	1197.95154475559	904.029214939471	145.058450728946	1129.29107514857	906.529569893859	143.656278649926	1587.1060592217	623.956624110974	159.617680587782	721.306246570233	1066.85636008387	155	1643.2482035751	572.730261430958	148	641.24447667481	1179.56688885682	144.106530629557	2157.00124144052	1303.00552387179	136.988250197392	2184.41844550435	970.38994099963	142.988250197392	1975.8559825522	1071.03304426942	147.119607655062	1620.54174867897
403.806099372206	142.752011441509	740.693640032094	1299.23232594731	179.364343942123	1917.00908494389	1551.56166999347	142.95927654881	2576.74978527437	1865.54316355611	159.115224601697	2866.01988479755	1327.19636587702	132.004650252251	2489.65329451008	1287.21420921238	148	1953.51859396414	708.235037159647	130.004650252251	1203.01458065776	907.02470782194	145.09091362322	1134.52879782554	908.702044102816	143.644253920287	1593.84149718714	626.243158302359	159.685506428224	725.448222411066	1069.23053981289	155	1650.15255135408	574.192321532466	148	644.050108200371	1181.01237408678	144.155310402913	2162.01558616887	1304.04736700659	136.976220778044	2188.6740416175	970.828346489616	142.976220778044	1978.70515398982	1071.81814640542	147.164610907414	1623.58011893313
404.072940053009	142.743607385931	742.184955605575	1301.40679294807	179.459474870577	1923.57167297915	1552.72383200847	142.938843073884	2581.78694081605	1866.53349601277	159.118459717673	2871.03179135827	1330.77544171555	132.011749802608	2499.61349780721	1289.99896354006	148	1960.11854903902	710.666758172098	130.011749802608	1209.29455460088	910.39946112118	145.136204150883	1140.80369074244	911.236145617207	143.638043304785	1601.72459427275	628.84354014553	159.755792769687	730.239906555372	1071.96173784665	155.001327222897	1658.15015719219	575.819199401373	148.001327222897	647.261144619789	1182.55658092564	144.207265107301	2167.76622386012	1305.08722396562	136.95927654881	2193.3032711948	971.31288937339	142.95927654881	1982.05199285937	1072.77036787483	147.220342132806	1627.30857416883
404.406033675685	142.737891768644	744.081735325574	1303.90766911657	179.55790263594	1931.57581465842	1554.07473279206	142.917596325812	2587.91690145438	1867.71927476265	159.1138973788	2877.30596395544	1334.59560051898	132.025106444853	2510.75183059928	1292.87612064047	148	1967.38269537819	713.318979749246	130.023779221956	1216.43711265767	913.956437773121	145.191995834377	1147.76716882286	913.980904492522	143.641733864257	1610.30379907866	631.622960228012	159.821338090192	735.432452529055	1074.9141584728	155.004650252251	1666.83083245285	577.519667552147	148.004650252251	650.697842904425	1184.09270279621	144.255703041147	2173.90229810563	1306.03372379977	136.937515850987	2197.98605413913	971.782968241481	142.937515850987	1985.64039466909	1073.81766000359	147.279482263103	1631.50997998369
404.792220291632	142.738407397083	746.255960304154	1306.65693290421	179.649772255973	1940.63441350657	1555.55434097055	142.898917788843	2594.7198665662	1869.05755592721	159.101082211157	2884.4115642432	1338.42043213665	132.045373703441	2522.39667606473	1295.65761320866	148	1974.87284666896	716.025740455559	130.04072345119	1224.02518616137	917.476889966429	145.253424559038	1155.01898619071	916.766354283418	143.655482532234	1619.09169102794	634.427458957339	159.877417048997	740.753034276728	1077.92789064066	155.011749802608	1675.74850723472	579.198430452441	148.011749802608	654.172043720068	1185.51298630783	144.29351402259	2180.03507140783	1306.8027316755	136.912946073561	2202.38737042823	972.179578596167	142.911618850664	1989.1911218634	1074.8816997375	147.33423747378	1635.92494789763
405.212192335041	142.748426020443	748.549759140028	1309.5376852622	179.724988466426	1950.22385673796	1557.08588710501	142.8861026212	2601.68858943557	1870.4903654282	159.082403674188	2891.82907331575	1342.00633793244	132.072906728724	2533.85802274001	1298.16490450634	148	1982.16114791715	718.615482223051	130.061156926116	1231.62529955928	920.743097256482	145.317555102407	1162.15448234604	919.421776091054	143.677162557589	1627.61327837946	637.10080178392	159.921115796128	745.932301789201	1080.83506205102	155.023779221956	1684.45891201482	580.766063770503	148.023779221956	657.504863913886	1186.7202573724	144.314760770662	2185.7881474159	1307.32915308412	136.885840763338	2206.20711407402	972.451266523982	142.881190511088	1992.4400441998	1075.88617351702	147.375917696778	1640.28108463708
405.639777391323	142.768708268562	750.792676797476	1312.39547127979	179.77518133823	1959.7389644019	1558.57486077561	142.881540282327	2608.28566793407	1871.94280462811	159.059829703219	2899.00958059421	1345.13212107603	132.106182896144	2544.51315976751	1300.24659720206	148	1988.88063882994	720.933436420207	130.082403674188	1238.84317302488	923.565959645118	145.379351357186	1168.81454131027	921.797776305756	143.701556711844	1635.45206357917	639.502935060269	159.951971850766	750.732772058139	1083.48125266541	155.039396228293	1692.55675428465	582.148383586702	148.04072345119	660.544084123051	1187.6404563058	144.314734578217	2190.86169541794	1307.57517739492	136.856345924096	2209.24621396233	972.56400812106	142.844596121488	1995.19248646312	1076.76749190018	147.398465475302	1644.34221885261
406.045071131811	142.79904869476	752.827664485334	1315.04827263142	179.793859875198	1968.56786531787	1559.91704313747	142.886102621199	2614.02778235829	1873.32447669386	159.036073198939	2905.45658194552	1347.62373979038	132.141805662347	2553.87098928701	1301.79613211949	147.998672777103	1994.75853905533	722.857852418895	130.101082211157	1245.36156948663	925.803282172651	145.434254319901	1174.72212820103	923.778285807246	143.720499806447	1642.2780209879	641.522818827424	159.968916079999	754.967107090625	1085.73553999802	155.055179450969	1699.70105064419	583.291689440184	148.059829703219	663.170869021945	1188.23153836237	144.292733011895	2195.0594130503	1307.53628441498	136.823089553381	2211.42090636407	972.505839112324	142.799310331425	1997.34148203388	1077.4804786757	147.398465475302	1647.92970204543
406.398792687561	142.83643363983	754.533063717703	1317.30927945991	179.77772891911	1976.17828336866	1561.00908297798	142.898917788843	2618.56015954991	1874.53904032151	159.010702196451	2910.80056900777	1349.37819651298	132.176381527814	2561.60995429532	1302.7610748469	147.995349747749	1999.63644100403	724.312484086191	130.1138973788	1250.96495477983	927.374605550493	145.47753825405	1179.70442776315	925.292472368196	143.726836879983	1647.86958374515	643.088986285207	159.970522919636	758.511182756507	1087.50655827858	155.064676396433	1705.63463221625	584.167592049047	148.077753421938	665.306461412052	1188.48321789386	144.25027051537	2198.31295046747	1307.23386031639	136.783439195371	2212.78138290302	972.285939884829	142.742715744182	1998.89137944954	1078.00187232796	147.375917696778	1650.94999606451
406.678822958947	142.876872874622	755.838283106148	1319.02775110395	179.727508522456	1982.19401267194	1561.77954219585	142.917596325812	2621.70143029107	1875.5121178692	158.983320328401	2914.84054811148	1350.36862270069	132.205513644112	2567.61616397024	1303.1453738745	147.988250197392	2003.48347006129	725.271127120937	130.118459717673	1255.55488331715	928.263084077744	145.504908191481	1183.70179546392	926.313752902984	143.715613492872	1652.12202209913	644.17019230268	159.955170470934	761.305966027287	1088.74398646768	155.060902934342	1710.20483532072	584.770764327019	148.089332408549	666.917205333745	1188.41790908469	144.19199853415	2200.66555229359	1306.71751908437	136.734284163753	2213.48271035642	971.935002559242	142.673127237637	1999.93690949829	1078.3350289941	147.33423747378	1653.39402216657
406.873198070412	142.915063851928	756.734471180256	1320.11205679778	179.646693569887	1986.45986320832	1562.1960574183	142.938843073884	2623.4774006825	1876.20159948387	158.950849775556	2917.57893151515	1350.6473004629	132.226729392565	2571.96161370886	1303.00796036328	147.974893555147	2006.37518040895	725.755369641579	130.1138973788	1259.13837666711	928.513210531775	145.513161020252	1186.75475028711	926.85440893933	143.684700662026	1655.04356443757	644.773855982565	159.921093078452	763.354914742902	1089.43869879546	155.036317680149	1713.36125215673	585.116169823823	148.088790933948	668.010524708582	1188.08520907551	144.124861433113	2202.25970445845	1306.05709287264	136.673127237637	2213.76291768933	971.501416779866	142.590723563449	2000.6514337561	1078.50699803621	147.279482263103	1655.33746411602
406.986017015008	142.947526746202	757.279127676327	1320.56176423682	179.541502581081	1989.07412208341	1562.28824084884	142.95927654881	2624.12248959789	1876.62276808048	158.910413599677	2919.22583574101	1350.33236982814	132.238758811913	2574.88759078447	1302.45201864475	147.953299073663	2008.47588596985	725.826008736476	130.101082211157	1261.8137358443	928.21873047329	145.500779129891	1188.98416205197	926.956616325358	143.636983280774	1656.7442368474	644.937251294327	159.86836292559	764.71352151216	1089.61566883072	154.986822643263	1715.16302081835	585.231366100781	148.071758791336	668.630613449703	1187.55041641156	144.056775772636	2203.2785590017	1305.32849008493	136.599155143877	2213.86920928117	971.039152843127	142.49807293272	2001.2281636468	1078.56045582388	147.219014909909	1656.90156082436
407.035448756076	142.971570525793	757.583492085888	1320.47395704963	179.418392611157	1990.36755977556	1562.14769873756	142.976220778044	2624.03663988658	1876.8510668333	158.860472819763	2920.1558251676	1349.59027491009	132.241586843051	2576.76166936275	1301.61680802444	147.921115796128	2010.01225100382	725.570805817647	130.082403674188	1263.74751501276	927.508119428237	145.468316235617	1190.56597443106	926.681908561456	143.577031605645	1657.42342267668	644.719286265616	159.79798867075	765.480823211863	1089.32833830795	154.91188604955	1715.77439600423	585.152495512805	148.035013174929	668.857874224021	1186.88994954725	143.99382608389	2203.92266068754	1304.61147079036	136.513944068774	2214.02657077187	970.606148120641	142.400046689974	2001.85193119668	1078.5512620238	147.159960655163	1658.23424358396
407.051425647641	142.985595751598	757.791763942318	1320.02364804144	179.282711816857	1990.84080387943	1561.90546482341	142.988250197392	2623.70996316251	1877.0017265338	158.800904615266	2920.83456856603	1348.61481736791	132.236211231033	2578.01009718185	1300.6580584786	147.8760898261	2011.23318623576	725.094705458296	130.061156926116	1265.14276148628	926.529498124312	145.418463369081	1191.69737646561	926.104327951173	143.511660074069	1657.35189139196	644.194346853784	159.713850688827	765.789759558277	1088.65213752353	154.814932899984	1715.45487728591	584.920810569567	147.977172037256	668.80087163905	1186.18694039717	143.939641240033	2204.38407235044	1303.98410682862	136.42155325808	2214.40702896279	970.256025664307	142.303093540407	2002.66902733511	1078.54224263374	147.107857852454	1659.48389120775
407.06755369644	142.990699495499	758.055736255536	1319.43249524118	179.137583125157	1991.07364748234	1561.71086215512	142.995349747749	2623.64878623075	1877.21092608713	158.733218798718	2921.74933429115	1347.6033521798	132.224209336535	2579.05589931947	1299.7344870701	147.816687837942	2012.37251793584	724.507587722653	130.04072345119	1266.21282664594	925.434667786817	145.355746079713	1192.57025427156	925.308441573146	143.445332480036	1656.84445895485	643.445394338864	159.620386784953	765.792898492661	1087.68381722784	154.702790459141	1714.53682528246	584.581542375925	147.89909151213	668.586160519154	1185.51922327262	143.894809011194	2204.82624892862	1303.51066805273	136.327938127399	2215.1159824229	970.029666926415	142.214040748598	2003.76592325041	1078.59002176775	147.065829896043	1660.77692825711
407.112838465416	142.986922974495	758.507749771115	1318.91424213136	178.982272722244	1991.61761842568	1561.6898033222	142.998672777103	2624.28971622916	1877.59221995113	158.660850416108	2923.32224624785	1346.7352191883	132.207265107301	2580.26716904958	1298.98880996368	147.742715744182	2013.62831582544	723.915941486676	130.023779221956	1267.15980061905	924.366021642905	145.285887453312	1193.35503630701	924.390151129183	143.382695375902	1656.23874556393	642.563673063516	159.523173815352	765.65498726798	1086.54099056535	154.584330741468	1713.39922987231	584.186921341834	147.803872670298	668.348173568675	1184.95864623014	143.856433837474	2205.39245285639	1303.24177508359	136.239818835924	2216.20253079534	969.954514734813	142.138736624767	2005.17890272045	1078.74346439978	147.034201801667	1662.21290603769
407.207624389105	142.974893555147	759.234030930157	1318.63533489248	178.814932899984	1992.88916185903	1561.92355224851	143	2625.9219352562	1878.2162852604	158.587138142383	2925.83145148034	1346.15149122473	132.186804107525	2581.91439285887	1298.52986302679	147.655749731121	2015.13936580114	723.414773627178	130.011749802608	1268.15658829927	923.443562383188	145.216039613968	1194.18745756102	923.454925793245	143.326422329626	1655.86269776619	641.64498507949	159.42795497352	765.538997410316	1085.35716661144	154.46867842471	1712.4285891605	583.794411482854	147.69647318231	668.216616466116	1184.56964387228	143.820272725157	2206.2160130945	1303.2108399579	136.163306402193	2217.6883410908	970.044393622846	142.080902728005	2006.91077804584	1079.04094862158	147.010422579711	1663.86965392425
407.356450173958	142.954626296559	760.264567427477	1318.68118767976	178.63107656355	1995.11637035868	1562.43025385227	143	2628.6582461083	1879.09284231692	158.514742234924	2929.38478802734	1345.9379921223	132.165160644011	2584.15502731591	1298.4179026001	147.559229858837	2016.98235472406	723.078076707092	130.004650252251	1269.33975494756	922.754476471275	145.151556599585	1195.16740559125	922.611817035722	143.278531003891	1656.0043507922	640.782943793223	159.339687930007	765.59645430897	1084.27310331982	154.363467151963	1711.98167434585	583.462794617533	147.583009080793	668.304412736254	1184.40120429265	143.780637356678	2207.4255500159	1303.43137077436	136.102663425828	2219.58799331652	970.299441646293	142.041506499712	2008.94941761812	1079.50347149968	146.988250197392	1665.80645662587
407.552239073277	142.927093271276	761.571955023382	1319.05357843947	178.427592784427	1998.3144442277	1563.1747544466	143	2632.43033626937	1880.18012259651	158.445332480036	2933.91285971607	1346.1258849838	132.143654075904	2587.04121727421	1298.66352596822	147.45814764768	2019.17740487055	722.957799309442	130.001327222897	1270.80836720635	922.35068149057	145.096685950681	1196.36432453864	921.966071365957	143.241579336103	1656.87773722093	640.065793029932	159.261846594691	765.949864500242	1083.42178126392	154.273596397299	1712.33881302745	583.247086071505	147.469897450288	668.693541803459	1184.4838582421	143.732529225795	2209.14678220957	1303.89531469578	136.058450728946	2221.92545737771	970.707049350704	142.017727277756	2011.28618593438	1080.13658553889	146.961147946082	1668.07313927984
407.777117886362	142.893817103856	763.081596476685	1319.67937790348	178.203229787349	2002.30932902776	1564.07817059104	143	2637.01635988761	1881.3956340841	158.379613215047	2939.19530009955	1346.68787502631	132.124581816373	2590.52713485626	1299.22812377655	147.358366466975	2021.69253451994	723.077555250394	130	1272.6184112322	922.245974103212	145.052473253798	1197.8177535607	921.606240504517	143.21639458829	1658.61795997543	639.566188099448	159.196127329702	766.690071480477	1082.91610407916	154.200777581953	1713.69330440197	583.190937820592	147.363016719226	669.435746165035	1184.83184274861	143.673127237637	2211.49633341398	1304.58129876135	136.029756697104	2224.73398939586	971.249197542652	142.005977475148	2013.92353949302	1080.93481273567	146.922420301349	1670.71145518853
408.010262063536	142.856867114757	764.691042427421	1320.44654057801	177.959820723185	2006.80434732595	1565.05058588453	143	2642.10095064577	1882.64794679996	158.317643015785	2944.92148186309	1347.54967512393	132.110833148395	2594.507453756	1300.03242650791	147.265715836247	2024.46542246147	723.43099995875	130	1274.79247626869	922.41865423039	145.018006894496	1199.54755094834	921.594482232398	143.203745636985	1661.25773740087	639.3338261958	159.142588710868	767.860595525776	1082.8318747251	154.143915933765	1716.11940409253	583.321252409705	147.267043059144	670.54363893446	1185.43512151339	143.600910081835	2214.5485154944	1305.45052543636	136.013077025505	2228.03298504691	971.897699755526	142.001327222897	2016.86022953564	1081.87533283213	146.86836292559	1673.7417813512
408.232886153221	142.818968219936	766.294317670737	1321.23416480287	177.702790459141	2011.45794994167	1566.00803323594	143	2647.34326571853	1883.85347241933	158.25798689791	2950.75664039569	1348.60903190773	132.103207600203	2598.84170853082	1300.97563597674	147.183739877119	2027.41577033108	723.987259797028	130	1277.31859012919	922.820703023289	144.987970580652	1201.55206664594	921.957378642385	143.201663595838	1664.7357879558	639.388898781855	159.100130951944	769.456834230783	1083.20031296345	154.100130951944	1719.57572487969	583.6447525914	147.185067100016	671.990768611481	1186.26347708937	143.518073130364	2218.31847073286	1306.45254423107	136.004650252251	2231.8073090609	972.620584795534	142	2020.08247666314	1082.92647510142	146.79798867075	1677.15642206782
408.429962654683	142.781409330383	767.801866904597	1321.93945739344	177.440770141164	2015.96275204529	1566.88643631356	143	2652.43630090329	1884.94707739004	158.198833526873	2956.39827527423	1349.74981998335	132.101880377306	2603.39194252179	1301.94847746227	147.113630179914	2030.46842387382	724.692201993405	130	1280.16031360583	923.384383731695	144.957949325913	1203.81429286721	922.681734779914	143.20894006361	1668.90390403891	639.721207307551	159.067134401264	771.424062917553	1084.00361535605	154.067134401264	1723.9104978873	584.146749971874	147.119607655062	673.717982963146	1187.26301166264	143.429020338555	2222.73686966182	1307.52482289975	136	2235.9775317305	973.380141195698	142	2023.53983960494	1084.04405300449	146.713850688827	1680.9027521701
408.595026348325	142.743513910331	769.151234780245	1322.50491678786	177.181984939161	2020.09401865699	1567.65503600707	143	2657.14177235626	1885.89809760386	158.137155410096	2961.61034920207	1350.863027838	132.106182896144	2608.03394199317	1302.8515943444	147.054080093435	2033.55665993805	725.480620957151	130	1283.25639549914	924.034078488527	144.923770241922	1206.29852064228	923.709321077353	143.223082454151	1673.53966168283	640.285669026652	159.042050674087	773.663716144656	1085.17229502524	154.042050674087	1728.87519122091	584.789577207495	147.070480148294	675.633407435915	1188.35985690582	143.339600016629	2227.64598102081	1308.59372976286	135.995349747749	2240.39593030215	974.13253689132	142	2027.14302829232	1085.17326034251	146.620386784953	1684.88148796522
408.727805294651	142.704117682038	770.31247308621	1322.91492186399	176.935774036305	2023.73703216376	1568.30653605087	143	2661.30084450417	1886.69945176608	158.069326648683	2966.23528551814	1351.85348580261	132.112832013765	2612.66321722121	1303.60049299081	147	2036.62357280058	726.279812554222	130	1286.52291614698	924.690825998282	144.88074007835	1208.94843973289	924.942355136523	143.242369891573	1678.35349729998	641.009235546013	159.023779221956	776.037986047766	1086.59111964431	154.023779221956	1734.13521784307	585.515271153728	147.036856247461	677.615821426623	1189.45947160288	143.255957032922	2232.79117766062	1309.57027689612	135.988250197392	2244.83019407578	974.828032850241	142	2030.7465716957	1086.24772996662	146.523173815352	1688.93649128836
408.831313948296	142.661727206268	771.278799314427	1323.18859844022	176.708594211002	2026.87462586775	1568.8473857503	143	2664.82880137741	1887.35780441138	157.99200400072	2970.18995536534	1352.64937610903	132.118547631051	2617.17015754626	1304.13455538804	146.945919906565	2039.60652761252	727.018364999591	130	1289.84362228481	925.280809557861	144.82843764055	1211.67870664645	926.249152874513	143.26690866938	1683.01584034404	641.798162394036	159.010422579711	778.387884074954	1088.11000165796	154.011749802608	1739.30730124658	586.25048009741	147.016400054859	679.526418459323	1190.45249008233	143.183312162058	2237.83760546458	1310.35365783617	135.976220778044	2248.97656948877	975.407401795066	142	2034.15510144214	1087.19101471372	146.42795497352	1692.86107772849
408.909936294306	142.615555198736	772.05380129524	1323.35884020313	176.505198345257	2029.5449938337	1569.27713691201	142.998672777103	2667.66935951358	1887.87445659404	157.901986826423	2973.42387316665	1353.19977294956	132.11978694057	2621.43005762909	1304.41273387745	146.886369820086	2042.43260827017	727.631096747781	130	1293.07367364658	925.736496595403	144.766494966138	1214.37866620306	927.485032307845	143.297209540859	1687.18412778862	642.550323828947	159	780.548369629742	1089.56831277219	154.004650252251	1743.99344492897	586.91676654289	147.005977475148	681.222096730843	1191.22585584098	143.1239101739	2242.40490698525	1310.84394245177	135.95927654881	2252.49795602831	975.812421012505	142	2037.14481341121	1087.92611615091	146.339687930007	1696.41897196834
408.961890998695	142.566850599855	772.632972206004	1323.44278864974	176.328983033782	2031.79089939015	1569.5721178355	142.994022524852	2669.76131957905	1888.22619057248	157.799315893647	2975.88785462544	1353.46352471283	132.1138973788	2625.25630692794	1304.40456393368	146.81626012288	2044.97953003719	728.059945775984	130	1296.02768618582	925.995865305303	144.69647318231	1216.90252994648	928.504640364882	143.332500466271	1690.53956764814	643.168241060678	158.988250197392	782.370709478416	1090.80932832707	154.001327222897	1747.82975943063	587.437461260245	147.001327222897	682.573127892503	1191.67136043841	143.078884203872	2246.10354222296	1310.95099926934	135.937515850987	2255.06147328675	975.986161719298	142	2039.48375569102	1088.38003695572	146.261846594691	1699.36649250245
408.981813582783	142.518876858735	773.003163130474	1323.42872208913	176.182360902846	2033.62858116124	1569.68318464449	142.983599945141	2671.0379096145	1888.36717004299	157.684877040245	2977.5386786512	1353.41251192866	132.101082211157	2628.40264297875	1304.09135704261	146.734284163753	2047.07804147736	728.258653820214	130	1298.49652661443	926.009534479788	144.620386784953	1219.08629323975	929.187221726815	143.372415381916	1692.81663268244	643.571175933104	158.971570525793	783.735597455145	1091.70705535736	154	1750.5190308117	587.750636009062	147	683.473951063025	1191.70028947898	143.046700926337	2248.58414700249	1310.60517028729	135.912946073561	2256.38182582561	975.881278455558	142	2040.96247743578	1088.49269675544	146.196127329702	1701.47923819484
408.958812450551	142.475721264893	773.136407903352	1323.27488598633	176.066960677977	2035.01079377636	1569.54918682239	142.964470975436	2671.41060717365	1888.24084444904	157.565207333984	2978.31561023098	1353.0270868208	132.082403674188	2630.60628893869	1303.46460659042	146.641633533025	2048.54674785104	728.197444921524	130	1300.28157742874	925.742799588706	144.540551321868	1220.77278861662	929.450438851582	143.416205170911	1693.85259690077	643.704878731257	158.947526746202	784.573917463637	1092.18201681816	154	1751.89095284585	587.815538156366	147	683.865520755432	1191.25918907911	143.025106444853	2249.57487985195	1309.77752176347	135.887167986235	2256.25189831004	975.471684178147	142	2041.4153228701	1088.22874985708	146.142588710868	1702.57203425954
408.878703198987	142.441459714086	772.993899183863	1322.90631356874	175.982474962642	2035.81592038969	1569.09672560747	142.934170103957	2670.77437572392	1887.77863215895	157.446747616311	2978.13756246989	1352.29900209698	132.061156926116	2631.60745614947	1302.52990509881	146.54185235232	2049.20362013834	727.865207137735	130	1301.21564245638	925.180727464248	144.459448678132	1221.82546484111	929.261858918734	143.460689666339	1693.60105972754	643.54638686363	158.915063851928	784.866793545881	1092.20788471875	154	1751.90632646002	587.620024889499	147	683.738437397955	1190.34229776968	143.011749802608	2248.95328609884	1308.49035965445	135.862323399243	2254.61604544952	974.761127534598	142	2040.77359901752	1087.58645449718	146.101458174841	1702.5486441149
408.728371647094	142.421026239159	772.539138412817	1322.2362431136	175.927609120911	2035.86150123563	1568.27057054951	142.893469370443	2669.03389109774	1886.93066960573	157.339949787868	2976.91923421149	1351.23490093838	132.04072345119	2631.20342226205	1301.30702222205	146.44209736406	2048.90544113806	727.27111636434	130	1301.19630615473	924.329798130171	144.379613215047	1222.15047537797	928.637035210917	143.503031987035	1692.13060869906	643.099626040207	158.876872874622	784.637085639738	1091.80611394057	154	1750.65611734756	587.176792243117	147	683.128461207103	1188.99094049133	143.004650252251	2246.74235223919	1306.81310486888	135.840816831137	2251.55687300688	973.778985235581	142	2039.06110947951	1086.59434005119	146.073111876411	1701.39596801319
408.498476917897	142.417096812661	771.748136097805	1321.18102641651	175.899267560083	2034.92699016175	1567.04207877276	142.844689597087	2666.13183397417	1885.67165810125	157.25554724831	2974.5900423651	1349.8551024556	132.023779221956	2629.28078228725	1299.83532515745	146.350227744027	2047.57477274294	726.441657465241	130	1300.19615138034	923.212879852456	144.303526817689	1221.70051742284	927.633154980545	143.538534526049	1689.59296205918	642.389390207812	158.83643363983	783.930792558856	1091.03633197004	154	1748.31578158205	586.523011333211	147	682.10104527689	1187.28488369429	143.001327222897	2243.11412015486	1304.85446131571	135.824945695083	2247.29335040032	972.58179815271	142	2036.39862306532	1085.3091195524	146.058450728946	1699.19097309524
408.184670881216	142.429544450186	770.615340607541	1319.6677470819	175.892080096347	2032.77800917394	1565.40848751195	142.792734892699	2662.05878762792	1883.99500498824	157.201837605964	2971.0942729056	1348.18823562114	132.011749802608	2625.81825407637	1298.16653517434	146.275011533574	2045.20787580281	725.411089713287	130	1298.25405487078	921.860506589773	144.233505033862	1220.4634580222	926.330681223065	143.561508340946	1686.18506900504	641.450932040697	158.799048694761	782.79506404272	1089.97275411401	154	1745.098175472	585.709668590983	147	680.736001132167	1185.34037410002	143	2238.36455887241	1302.75903197195	135.816514114655	2242.15479042763	971.249790696059	142	2032.9956492384	1083.81487295847	146.060635469417	1696.0928670534
407.787794265476	142.457603473305	769.160620362696	1317.65246040445	175.90024501174	2029.21465472229	1563.40167682467	142.744296958853	2656.87675574917	1881.92342804164	157.18489337673	2966.41981889346	1346.26524735345	132.004650252251	2620.87145694674	1296.35710512082	146.22481866177	2041.86005581335	724.213318466399	130	1295.44989741182	920.301164759552	144.17156235945	1218.44615014218	924.816945159661	143.567918268756	1682.09835426009	640.317378673271	158.768708268562	781.257429232022	1088.68591642886	154	1741.19221106006	584.793222102445	147.001327222897	679.108454171163	1183.28212006213	143.001327222897	2232.8518437349	1300.6800383839	135.816514114655	2236.52378295268	969.873500453668	142	2029.10639430899	1082.20718795364	146.082229950902	1692.31277485983
407.3153645625	142.49842270396	767.42911738961	1315.12870923719	175.917596325812	2024.11256055309	1561.08495394919	142.70648597741	2650.7313853455	1879.50685465384	157.206140124802	2960.61895344043	1344.11711532352	132.001327222897	2614.56938294835	1294.4651871745	146.206140124802	2037.640668253	722.874921075914	130	1291.88588276544	918.555057295598	144.120587144546	1215.66878223804	923.169372350715	143.557216141878	1677.49219805257	639.017554682527	158.748426020443	779.322547492363	1087.2299820028	154.001327222897	1736.73576453325	583.827453600199	147.005977475148	677.279117964513	1181.23294005808	143.004650252251	2226.95140141493	1298.76729936706	135.824945695083	2230.78687325539	968.546385105447	142	2025.00553184395	1080.58822112128	146.124257907312	1688.09247122922
406.781850252556	142.547829827468	765.491675298762	1312.13706931081	175.938843073884	2017.46442742542	1558.55449410139	142.685239229338	2643.86283138835	1876.82931660168	157.26219636593	2953.83736091094	1341.77375028548	132	2607.09844546035	1292.54647373939	146.22227108089	2032.69770181582	721.413094216738	130	1287.66756791002	916.635962012638	144.083534456123	1212.16137449834	921.448332586954	143.532215520905	1672.49179772596	637.573685666244	158.73973461998	776.98397132919	1085.63818277717	154.004650252251	1731.82108732098	582.858149441909	147.017727277756	675.298915691427	1179.30326685259	143.013077025505	2221.01059216623	1297.15312304718	135.840816831137	2225.28974186927	967.357863446976	142	2020.95385203718	1079.05914344937	146.186394322913	1683.67957275634
406.206185286585	142.603035470881	763.438066851282	1308.76472249591	175.95927654881	2009.41178255817	1555.92792957681	142.683938198886	2636.59406253071	1873.99993763658	157.345665405154	2946.3224425259	1339.27501235166	132	2598.70895103193	1290.65732038479	146.272491477544	2027.21540866334	719.841869807144	130	1282.90651230657	914.55975186758	144.064428204093	1207.97953898181	919.700904701095	143.499278183707	1667.21471701336	636.011082877769	158.742542020895	774.250955132688	1083.93518573548	154.011749802608	1726.53121848807	581.925570269802	147.041506499712	673.223176907821	1177.58096075048	143.028429474207	2215.33173108749	1295.93968990217	135.862323399243	2220.32150111554	966.381476332892	142	2017.18224746319	1077.71064135196	146.265715836247	1679.31633286651
405.613551526192	142.661110236143	761.374000519135	1305.15084144596	175.977548000941	2000.26513687088	1553.34438149095	142.702616735854	2629.32664653014	1871.15805825623	157.446659702933	2938.43560759764	1336.67955584115	132	2589.72989679872	1288.85842147713	146.351979207216	2021.41939054259	718.182348198986	130	1277.73763391492	912.360050094065	144.066612944565	1203.22882091677	917.973678133746	143.468592945067	1661.81178477095	634.371322498641	158.755357188539	771.179189095449	1082.15520155999	154.023779221956	1720.99249557536	581.068869993875	147.082229950902	671.127697080688	1176.13452996645	143.053800476695	2210.16972942422	1295.20025514575	135.887167986235	2216.11661385075	965.674629004487	142	2013.88497685778	1076.6219820274	146.358366466975	1675.23145370806
405.032237419611	142.720252404267	759.414362924312	1301.46838971455	175.994227672539	1990.49254993351	1550.94469275676	142.737979682022	2622.50770230613	1868.45451359221	157.554667519964	2930.63240568789	1334.07475725088	132	2580.56953534034	1287.21915059019	146.452519943772	2015.57135818626	716.475394067169	130	1272.33938737336	910.100450110919	144.09397975351	1198.08327123916	916.325978600728	143.446625644401	1656.50939865705	632.720847689216	158.777117886362	767.896955478196	1080.35902565422	154.042050674087	1715.42766278606	580.331051104236	147.143386877018	669.124541813222	1175.01593002661	143.09091362322	2205.75314592882	1294.97411060355	135.912946073561	2212.86738831819	965.273796008808	142	2011.22611277065	1075.85524682982	146.45814764768	1671.64165452388
404.49258541801	142.776917545849	757.672688071627	1297.92269272409	176.013077025505	1980.68169369804	1548.87212544042	142.784222243893	2616.58725965682	1866.04940572102	157.660312069993	2923.41834346529	1331.58654165254	132	2571.72573527377	1285.82261063348	146.563880111087	2009.97339124096	714.791790035884	130	1266.95989574363	907.887939981523	144.148037129269	1192.80468389272	914.841779588024	143.437970468393	1651.62102496306	631.159201356865	158.805816725378	764.609745275722	1078.64932001453	154.065807178367	1710.16793711503	579.762823312527	147.224463328309	667.358791021394	1174.2647256521	143.140854403134	2202.29908447394	1295.26839475615	135.937515850987	2210.73935145236	965.192688392888	142.001327222897	2009.34163255126	1075.44875149083	146.559229858837	1668.74615926013
404.026807168874	142.82843764055	756.257374768142	1294.73321622472	176.040179276815	1971.49007312396	1547.25828756375	142.8330878928	2611.9835071359	1864.09992835758	157.755530911825	2917.30290154879	1329.37737829755	132	2563.76677842481	1284.76721946259	146.674454460534	2004.95899498137	713.237898079267	130	1261.92177752871	905.872387496504	144.228444997	1187.73346039595	913.630351490037	143.441739330826	1647.5317960813	629.811260098415	158.840816831137	761.585690385807	1077.16344445332	154.095480699693	1705.63349137366	579.417379421256	147.322222510112	665.992093850195	1173.91159867129	143.202418414088	2200.01342591275	1296.05654948474	135.95927654881	2209.86370024451	965.424403679674	142.004650252251	2008.33612405637	1075.41538492901	146.655749731121	1666.7119163401
403.665039590781	142.870317498639	755.26153236679	1292.115068105	176.083557173799	1963.56314132992	1546.21618181242	142.877417048997	2609.03202720562	1862.7453198958	157.83536637491	2912.72658297353	1327.63826616507	132	2557.29416842609	1284.16359481727	146.774209448794	2000.87184501372	711.948441542261	130	1257.60813135321	904.237034379516	144.331523014614	1183.26362254125	912.816849351158	143.453064118147	1644.65245482431	628.813469170441	158.882779591846	759.118041837587	1076.06202312988	154.129511685363	1702.28051012008	579.345710388172	147.429020338555	665.180012296278	1173.98020271575	143.272553528743	2199.06975356396	1297.28325121586	135.976220778044	2210.30975859474	965.942998635164	142.011749802608	2008.26333050364	1075.73995731362	146.741388521285	1665.64661816376
403.433719363032	142.898663797069	754.752506543776	1290.25890629794	176.149364352166	1957.45576618553	1545.82790806751	142.910693216417	2607.9453721475	1862.09274740043	157.898663797069	2910.00205395728	1326.56509493011	132	2552.87296981294	1284.12196258665	146.857940345879	1998.03055667635	711.070947404661	130	1254.4163121667	903.172720761357	144.452519943772	1179.79100513112	912.520236250373	143.463749159143	1643.34591265571	628.290655664265	158.932541689676	757.477902084233	1075.49752364202	154.167697855495	1700.51891785848	579.583931881342	147.53545063688	665.038722295999	1174.48402688905	143.346528750989	2199.58559244237	1298.86803453655	135.988250197392	2212.06905016278	966.706791820272	142.023779221956	2009.1181909725	1076.37827947434	146.812037585691	1665.58171590555
