Light	Light	Light	Light	Light	Light	Light	Light	Light	Light	Light	Light	Light	Light	Light	Light	Light	Light	Light	Light	Light	Light	Light	Light	Light	Light	Light	Light	Light	Light	Light	Light	Light	Light	Light	Light	Light	Light	Light	Light	Light	Light	Light	Light	Light	Light	Light	Light
Optode1-730nm	Optode1-Ambient	Optode1-850nm	Optode2-730nm	Optode2-Ambient	Optode2-850nm	Optode3-730nm	Optode3-Ambient	Optode3-850nm	Optode4-730nm	Optode4-Ambient	Optode4-850nm	Optode5-730nm	Optode5-Ambient	Optode5-850nm	Optode6-730nm	Optode6-Ambient	Optode6-850nm	Optode7-730nm	Optode7-Ambient	Optode7-850nm	Optode8-730nm	Optode8-Ambient	Optode8-850nm	Optode9-730nm	Optode9-Ambient	Optode9-850nm	Optode10-730nm	Optode10-Ambient	Optode10-850nm	Optode11-730nm	Optode11-Ambient	Optode11-850nm	Optode12-730nm	Optode12-Ambient	Optode12-850nm	Optode13-730nm	Optode13-Ambient	Optode13-850nm	Optode14-730nm	Optode14-Ambient	Optode14-850nm	Optode15-730nm	Optode15-Ambient	Optode15-850nm	Optode16-730nm	Optode16-Ambient	Optode16-850nm
821.044149110275	159.996676970646	1394.14261360302	1363.33865252582	265.800073124832	2019.63446604393	901.598973533703	196.680226787994	1620.63855171636	1404.03447910093	160.857940345879	1991.97986111435	1023.07237632414	185.830005731946	1912.37310478068	1165.18025200687	149.559229858837	1805.40026701123	984.838104607949	149.095104736009	1914.60839947925	1229.55534105215	202.756482171038	1971.58639347287	828.909280141038	163.007379167097	1344.98013851743	1800.26600256178	217.990966694385	2685.30965675368	1072.21460130161	219.082403674188	1889.28365506109	1384.10046625733	146	1926.16934682817	946.417449146632	207.638022453365	2061.86573528647	1376.28091387548	134.823001640003	2613.1526858386	922.75560280617	150.309145484607	2129.11320835402	1078.07422591396	155.076426199041	2031.34132688313
820.753506120049	160.022451999059	1393.48406692778	1363.66613886375	266.266276389255	2019.93702396687	901.160948343316	196.769817995491	1619.55561536298	1403.50861554018	160.922420301349	1990.46534884824	1023.06209668573	185.954626296559	1912.68055284022	1164.8809602462	149.641633533025	1804.43873192668	984.793177473639	149.081076451291	1915.03248062332	1229.18095871528	202.850635647835	1970.807814977	828.848651309106	163.034745976042	1345.33487043158	1799.79393294859	218.064225963696	2684.77753342724	1072.20623166248	219.244642811461	1889.62009863861	1383.71606117321	146	1925.74074018111	946.531599291292	207.736738269034	2062.16280430025	1376.15564359776	134.857411289132	2611.93856672537	923.004363538761	150.399263641452	2129.93585454266	1078.19473327726	155.09975498826	2031.60938634079
820.43109762132	160.051146030901	1392.73124362875	1363.81892072117	266.636674975352	2019.93078669068	900.743704473388	196.85311080812	1618.42166222651	1402.96144340582	160.970243302896	1988.62252484428	1023.00025899631	186.07065387158	1912.6448211824	1164.50747413739	149.716906657237	1803.1301553453	984.739088259378	149.062484149013	1915.2098462692	1228.69216402515	202.917770049098	1969.57118040623	828.632360246176	163.059829703219	1345.36483159323	1799.14298394504	218.119781378349	2683.67117653374	1072.15477052766	219.399263641452	1889.67175441885	1383.20826805283	146	1924.8420307921	946.690994495879	207.816687837942	2062.27324180096	1376.01674118506	134.88074007835	2610.41824138489	923.241779364172	150.476999907935	2130.40528088395	1078.27295753387	155.113897378801	2031.55691091402
820.133757508609	160.084936148072	1392.09821899643	1363.8355254062	266.901227767214	2019.82663828781	900.40771053278	196.934182521811	1617.44674688511	1402.57829073572	161.0060519442	1986.943542162	1022.95825712328	186.179183366507	1912.41504044539	1164.1909387198	149.783439195371	1801.75543889284	984.733521686078	149.046700926337	1915.25118860572	1228.19698007644	202.964470975436	1968.09214095178	828.283088343218	163.082403674188	1345.07080460686	1798.41312301805	218.167339822261	2682.08081188643	1072.10358075197	219.541502581081	1889.4675164522	1382.69058786765	146	1923.62108535445	946.853487386812	207.88074007835	2062.16070757921	1375.86320979987	134.893469370443	2608.74933627806	923.400545737218	150.529740360619	2130.43515979473	1078.28219867326	155.118459717673	2031.22883346217
819.906026381557	160.123127125378	1391.76826989525	1363.75575547355	267.05867866617	2019.82347978064	900.185340433969	197.017394661971	1616.79260667026	1402.50444972277	161.034745976042	1985.86744670447	1022.99283290581	186.281237201061	1912.10639919305	1164.04990204094	149.840467059898	1800.5447712052	984.797388121832	149.040179276815	1915.19535652108	1227.79530205387	202.998672777103	1966.56238233633	827.836993403581	163.101082211157	1344.4810214799	1797.70418735577	218.218058138101	2680.13884613615	1072.07498447697	219.66714976249	1889.02394231767	1382.26374250391	146.001327222897	1922.23613378895	946.949134733797	207.934192821633	2061.74456941893	1375.68296719408	134.896792399797	2607.0578079366	923.395258331979	150.548418897587	2129.91091573863	1078.19699048317	155.113897378801	2030.68461031849
819.774304410176	160.162239137273	1391.85706706546	1363.62022620274	267.114820120902	2020.06537832247	900.080719686526	197.103614685041	1616.54413630433	1402.82082136705	161.059829703219	1985.69015682922	1023.13342792555	186.378198078772	1911.79433400181	1164.15976572473	149.887839628708	1799.64474050674	984.914799578425	149.047278827172	1915.02648550936	1227.55936444453	203.029551549417	1965.12772769403	827.336469528296	163.113897378801	1343.65278888894	1797.09717241104	218.278409031981	2678.01356177455	1072.06908248672	219.772882225897	1888.3593889703	1381.99624909238	146.004650252251	1920.84460058602	946.901591678355	207.983055770766	2060.92079392582	1375.46110189654	134.893817103856	2605.41685516588	923.144568802907	150.531067583516	2128.71862900433	1078.00224852706	155.101082211157	2029.98060635695
819.745947594168	160.196301052989	1392.38663214429	1363.46404648819	267.081405967415	2020.60737957644	900.075686631366	197.192267632921	1616.69769161715	1403.53474940327	161.082403674188	1986.49934485395	1023.38259696536	186.470936622879	1911.52200547827	1164.5419907054	149.925766048379	1799.1176084806	985.048757998639	149.069152925397	1914.71320412679	1227.5212800284	203.063175450249	1963.88083818151	826.816750432288	163.118459717673	1342.67162925105	1796.63307718118	218.35002259634	2675.89481403806	1072.06197378493	219.856613122982	1887.50816137756	1381.90956198751	146.011749802608	1919.59243858768	946.647333817638	208.032017061196	2059.60603808297	1375.18229096289	134.887167986235	2603.86635704753	922.594910463224	150.482977383082	2126.80210647766	1077.69677492121	155.082403674188	2029.17799419442
819.81428086041	160.21954192883	1393.30314321223	1363.31996135586	266.976451814929	2021.42475165652	900.140520286451	197.281481903468	1617.18245152207	1404.59592826895	161.101082211157	1988.20565028926	1023.71967074746	186.559229858837	1911.32369935204	1165.16609695095	149.954626296559	1798.9640269668	985.156462594531	149.103207600203	1914.24880114295	1227.67266352593	203.101880377306	1962.87285978807	826.3016876935	163.115224601697	1341.65475364347	1796.30801502853	218.429020338555	2674.00318956165	1072.01391808378	219.917770049098	1886.54855798321	1381.97402759818	146.025106444853	1918.6241256474	946.155143088385	208.084936148072	2057.77777733978	1374.84761361789	134.881452368949	2602.44153621405	921.742177978565	150.41566369631	2124.20215513785	1077.30040928948	155.061156926116	2028.34781347364
819.968477450108	160.227794757601	1394.50285303309	1363.2187310624	266.82177059248	2022.43806110986	900.248307159785	197.368649160735	1617.89400139249	1405.92335346193	161.113897378801	1990.59225032319	1024.11175263424	186.641633533025	1911.25710387764	1165.96818483023	149.974893555147	1799.17507480186	985.210098231229	149.143560600305	1913.69730006857	1227.97648887653	203.143560600305	1962.14782525482	825.799824143234	163.105732463407	1340.72933230199	1796.08097733047	218.507650550653	2672.54362382446	1071.88238494793	219.958493500288	1885.58611751442	1382.12318379739	146.045373703441	1918.0561683606	945.433674580411	208.142256095084	2055.48538808023	1374.46931222125	134.88021305943	2601.18150299812	920.629801910113	150.344674509172	2121.06143497461	1076.84725605284	155.04072345119	2027.56170802342
820.198715543544	160.21954192883	1395.86866990702	1363.18897336182	266.641083846054	2023.54731568786	900.380420022279	197.452261214396	1618.72482044635	1407.43213507197	161.118459717673	1993.38915260007	1024.52687954959	186.716906657237	1911.39960732442	1166.87513605593	149.988250197392	1799.7415223641	985.206712726795	149.183485885345	1913.18347866174	1228.38364046182	203.183485885345	1961.74355548366	825.310688155014	163.094153476797	1340.02750387183	1795.88885511965	218.577130859879	2671.70420532392	1071.63102643105	219.982272722244	1884.75602799303	1382.27142068638	146.072906728724	1917.98082913884	944.527345473815	208.201635365566	2052.85324420394	1374.07300560477	134.886102621199	2600.13236511488	919.343418666298	150.284315749205	2117.60928942195	1076.37791437272	155.023779221956	2026.88668055793
820.501823232454	160.196301052989	1397.30198649994	1363.25735539285	266.457620628759	2024.66692772455	900.532822995048	197.531338730745	1619.59338225252	1409.05435024574	161.113897378801	1996.34517539519	1024.93858351989	186.783439195371	1911.8426004906	1167.81878601256	149.995349747749	1800.66958631233	985.162788316188	149.216306812854	1912.86862307079	1228.84229803563	203.214979589957	1961.7010667992	824.826872732651	163.084936148072	1339.65928145511	1795.6626066665	218.63107656355	2671.6063280688	1071.23749101411	219.994022524852	1884.18552529018	1382.33178254301	146.106182896144	1918.43367015968	943.503412023255	208.257457979105	2050.05267702221	1373.68617244271	134.898917788843	2599.33166862189	917.989676784472	150.243940031427	2114.11171499849	1075.93175201825	155.011749802608	2026.36685102418
820.8722985231	160.162239137273	1398.74141437013	1363.43494883523	266.289205141641	2025.74969236751	900.704266151935	197.606244394412	1620.45812797829	1410.72871548632	161.101082211157	1999.26842937014	1025.33228994393	186.840467059898	1912.6632477017	1168.75248844363	149.998672777103	1801.96761369519	985.111183166626	149.238334571621	1912.90377045408	1229.31340811037	203.232357096474	1962.04907601747	824.3480106609	163.08144690238	1339.69023374367	1795.35438561995	218.665394824531	2672.27284391878	1070.70266444852	219.997345554206	1883.9568534299	1382.2407158481	146.141805662347	1919.37590046121	942.429187587584	208.303272825915	2047.27014894903	1373.31812215464	134.917596325812	2598.78922628271	916.664899782956	150.227117774103	2110.820224183	1075.52449456399	155.004650252251	2026.01153928156
821.298827514737	160.123127125378	1400.15369801291	1363.7140558511	266.148054284723	2026.77893045004	900.893667721922	197.677794645342	1621.30792250261	1412.39718882656	161.081076451291	2002.02422666843	1025.70220154772	186.887839628708	1913.88716012181	1169.64594306619	149.998672777103	1803.61077651007	985.083742910958	149.248757151332	1913.37891740701	1229.76555628347	203.231029873577	1962.7762315873	823.880782577568	163.086263370969	1340.12812810646	1794.94349198308	218.679179181837	2673.61517286801	1070.04782543526	219.995349747749	1884.08759138169	1381.96910166734	146.176381527814	1920.69145656743	941.360593955462	208.333527221008	2044.67291700343	1372.96305556395	134.938843073884	2598.47651321909	915.44151137636	150.230969860204	2107.92514242669	1075.15155428655	155.002654445794	2025.7870289432
821.757730384647	160.084936148072	1401.52127934173	1364.06188902405	266.038195888212	2027.75300773131	901.09361982039	197.743920995169	1622.15344455855	1413.99509835784	161.056506673866	2004.52289453168	1026.0470000799	186.925766048379	1915.47255504895	1170.47870479625	149.994022524852	1805.52122573782	985.105705782245	149.250508614521	1914.30015390744	1230.17686604752	203.20900211481	1963.82006333426	823.439217443603	163.100130951944	1340.90999808198	1794.44254762433	218.673033762037	2675.41952120742	1069.31343462386	219.988250197392	1884.51060987702	1381.52436971357	146.206840867009	1922.18548337737	940.331859964019	208.345189110238	2042.3845361861	1372.59078276152	134.95927654881	2598.32206177084	914.353837219978	150.249106922572	2105.52717458745	1074.78060517723	155.004650252251	2025.61504679131
822.217394406556	160.052473253798	1402.82420497652	1364.43247347194	265.957368517789	2028.66996966562	901.293021383251	197.803353913373	1623.00903395783	1415.4549791623	161.028973648582	2006.70355777391	1026.3695797401	186.954626296559	1917.30525062826	1171.23549128991	149.983599945141	1807.55715122896	985.192684406113	149.247988558491	1915.59237591942	1230.53139569328	203.165758607589	1965.06124275683	823.041917532892	163.122132518266	1341.91391533192	1793.88881679792	218.648556705164	2677.39089297925	1068.55320586246	219.976220778044	1885.09331404123	1380.94986080338	146.231379644816	1923.62476617277	939.355921674893	208.338539992618	2040.46404908045	1372.15763234546	134.976220778044	2598.21010288871	913.398052617467	150.273863596185	2103.61997476673	1074.35992144036	155.011749802608	2025.37817263557
822.639664849753	160.028429474207	1404.02238494538	1364.77175629066	265.899250404628	2029.50011270627	901.477055548231	197.850718823612	1623.87329202229	1416.71231927783	161	2008.50847881057	1026.67039172347	186.974893555147	1919.22833028149	1171.89960057007	149.964470975436	1809.54128046729	985.347601804713	149.246768200508	1917.12794164161	1230.81484394472	203.102054100593	1966.35005752616	822.704403147005	163.150753626262	1342.97634037525	1793.33468755133	218.60785597165	2679.19561131925	1067.8228238504	219.957949325913	1885.66283880257	1380.3108051268	146.250508614521	1924.7706191355	938.429810592876	208.315532744366	2038.91358631102	1371.61868985224	134.986922974495	2598.01408207863	912.544861471286	150.298186992516	2102.11666595951	1073.83543910187	155.023779221956	2024.95235545222
822.99070990703	160.013077025505	1405.05341836834	1365.0371606755	265.85601719723	2030.19264945393	901.635107727644	197.880656902573	1624.71842240056	1417.72221924345	160.971026351418	2009.88095410645	1026.94852954928	186.986922974495	1921.0595385169	1172.45436150933	149.935497326854	1811.2825253159	985.5616318913	149.250091229861	1918.74271022583	1231.0177277744	203.019650426404	1967.52594415966	822.429913494911	163.182962390819	1343.92456267694	1792.82678389711	218.551925160792	2680.52894056823	1067.16655274692	219.932865598736	1886.04078986444	1379.67514106284	146.265366065007	1925.42744667614	937.546339956102	208.2807160104	2037.67371617776	1370.94572147657	134.990699495499	2597.6017901969	911.753709879858	150.316859967263	2100.86376544929	1073.16545057301	155.04072345119	2024.21981492411
823.248530728277	160.004650252251	1405.83427014415	1365.20749366785	265.821693423653	2030.67457978754	901.758905742181	197.887748794359	1625.48308184001	1418.46561151355	160.942166103238	2010.75745939348	1027.19679568668	186.990699495499	1922.62919563979	1172.88382589047	149.896792399797	1812.61192822297	985.811230907456	149.259738361099	1920.26344073061	1231.1324616095	202.921115796128	1968.44756422285	822.210538433736	163.215777756107	1344.59887634444	1792.39592477183	218.482336654248	2681.15648325706	1066.60808143388	219.899869048056	1886.07017124669	1379.10017677759	146.276934682223	1925.46426371982	936.696319693339	208.236666470944	2036.64967662649	1370.12872933927	134.986922974495	2596.86684902401	910.98457246514	150.32704648565	2099.6891595223	1072.33231107921	155.061156926116	2023.10208170852
823.4028570873	160.001327222897	1406.2714328599	1365.28553371378	265.792734892699	2030.86570913321	901.844167089185	197.868907099965	1626.07359292532	1418.95231178639	160.912946073561	2011.07380457821	1027.39800495023	186.985595751598	1923.80658559242	1173.170575445	149.850461924548	1813.41419876945	986.05308636473	149.274287836478	1921.5305355599	1231.14873962681	202.809738473358	1969.0173521956	822.026592135467	163.244642811461	1344.88736023698	1792.05039080248	218.397941980776	2680.95912456778	1066.14694851007	219.857411289132	1885.64492559943	1378.62029511748	146.285366262651	1924.83751128753	935.873685528442	208.184955693967	2035.73509546306	1369.18083081228	134.976220778044	2595.74636277516	910.208175349519	150.32704648565	2098.44225629574	1071.34727090939	155.082403674188	2021.57904689856
823.460304137079	160	1406.28620216932	1365.29587465227	265.767293132287	2030.70232124912	901.887320269239	197.822289349405	1626.38332945367	1419.22077065668	160.881190511088	2010.78952797118	1027.53046204132	186.970243302896	1924.51124012202	1173.30393025848	149.798786836899	1813.63685716434	986.229964651478	149.289480602522	1922.40467078023	1231.05815998115	202.689527292496	1969.18771329905	821.849193041721	163.265889559533	1344.73212465812	1791.76780066008	218.298710487042	2679.92730428953	1065.75557942565	219.803872670298	1884.71390343834	1378.23607691086	146.289668781489	1923.57339570769	935.076679871571	208.124599575252	2034.8283828267	1368.13125661572	134.957949325913	2594.22017657509	909.4113809852	150.316859967263	2097.01728917601	1070.24829644496	155.101082211157	2019.68438331691
823.443519335167	160	1405.83876019425	1365.28267942728	265.746592596417	2030.16428453728	901.889731039098	197.750880659575	1626.3248973548	1419.33515712702	160.845923344385	2009.91378144033	1027.57029297501	186.942876493951	1924.7259902747	1173.28195803484	149.743513910331	1813.30242288551	986.279373269969	149.299491497737	1922.78932514955	1230.85620071226	202.565207333984	1968.97132321949	821.650292419261	163.274809293177	1344.14425093193	1791.51278090549	218.184790390566	2678.178875947	1065.39321040384	219.736826182412	1883.29822535643	1377.92890083398	146.287886318682	1921.78614846518	934.302657959259	208.052652539306	2033.86105670134	1367.01562259435	134.932865598736	2592.33094086001	908.591145765914	150.29685976962	2095.37981789979	1069.08679231557	155.113897378801	2017.5085433386
823.381118583127	160	1404.94586237855	1365.29050219051	265.730786656065	2029.28451761649	901.853358417816	197.658984847096	1625.85374355838	1419.36550517407	160.805287806573	2008.51984490482	1027.49835517964	186.90331404932	1924.49408416686	1173.11663336213	149.686740175522	1812.50259374702	986.148531928847	149.298710487042	1922.64579051099	1230.54536830531	202.44209736406	1968.43434910578	821.409319498445	163.268430295413	1343.2001289263	1791.24310835823	218.059951675129	2675.94032196245	1065.01609723443	219.655661817743	1881.4902214944	1377.66799804515	146.277730799914	1919.66462737098	933.555531847428	207.966991031466	2032.81503431122	1365.88180845746	134.901196270953	2590.19168480687	907.762799654504	150.267886121038	2093.57566039543	1067.92656852201	155.118459717673	2015.1895946714
823.310207942353	160	1403.7065295901	1365.36129851165	265.720517736897	2028.1721949802	901.788085025726	197.555994742861	1625.00904932421	1419.38440909413	160.760443021937	2006.7814247971	1027.31234510947	186.853093652666	1923.91805741615	1172.84485828491	149.630233501656	1811.39395769525	985.814669108933	149.284568096502	1922.01182799862	1230.14696688747	202.326872762363	1967.69414313011	821.120778240534	163.244386515822	1342.03651829248	1790.93453079749	217.930952968057	2673.531537639	1064.59627693535	219.560295223872	1879.45316022471	1377.43137782017	146.257463541327	1917.46760053831	932.838814861112	207.868568073277	2031.72682677824	1364.77629318004	134.863388764279	2587.98180553197	906.946843737078	150.231379644816	2091.72034813119	1066.82579344266	155.113897378801	2012.89327809082
823.26779822846	160	1402.29868828137	1365.52685479889	265.714633737349	2027.00178838897	901.712318224609	197.449982732287	1623.91709027482	1419.4575344772	160.714633737349	2004.96139747008	1027.03234982504	186.797037411537	1923.15575602406	1172.52905847638	149.576957136592	1810.19352606657	985.295655203186	149.257457979105	1921.0107683276	1229.70376301006	202.227117774103	1966.91501158757	820.801203814104	163.202950170609	1340.83944666956	1790.5979849283	217.809157665234	2671.34862187844	1064.13164279362	219.453046962692	1877.41207928523	1377.22537019813	146.226729392565	1915.51977699872	932.162163612023	207.760443021937	2030.68472700739	1363.75631584422	134.820272725157	2585.94645632371	906.172528878136	150.189463360493	2089.98567497452	1065.83829450402	155.101082211157	2010.80642502585
823.289006669481	160	1400.96070274332	1365.80357998829	265.714206022288	2025.99575332882	901.651587786758	197.352764955512	1622.78657979686	1419.63094873217	160.67295351435	2003.38316784621	1026.70243629488	186.742542020895	1922.40198394429	1172.25341017242	149.531147852004	1809.1614172835	984.649929578853	149.220340094979	1919.83765293189	1229.27798035382	202.149364352165	1966.29188605155	820.488749351843	163.147412686406	1339.82140798299	1790.28476516039	217.70672281373	2669.81145981056	1063.65197067837	219.338889763857	1875.62514420263	1377.0883854834	146.188136137596	1914.16837201754	931.540517925722	207.652680693541	2029.81729940269	1362.88434623952	134.77500965277	2584.37992442133	905.475309772768	150.144887823202	2088.57903180995	1065.01032771002	155.082403674188	2009.12381785797
823.402702424184	160	1399.95758890698	1366.19596637363	265.719283989599	2025.38804868096	901.637447823762	197.274225785278	1621.87224549067	1419.934854017	160.641459809738	2002.38251964894	1026.38318329851	186.698054396982	1921.86965786155	1172.10965728964	149.497899209434	1808.56625804346	983.968597837865	149.178400051946	1918.73909537651	1228.94372988308	202.099957228657	1966.02717745656	820.23905498632	163.083730897085	1339.18946613004	1790.08226632069	217.634880846617	2669.29207249068	1063.213096991	219.224992385057	1874.34101626643	1377.08554626554	146.144887823202	1913.71853189286	930.994311559495	207.556536079519	2029.2571034836	1362.22142360939	134.730792218287	2583.5618645663	904.889472637721	150.101880377306	2087.69265153308	1064.37495484206	155.061156926116	2008.01364589525
823.634310954615	160	1399.53264594479	1366.70028500064	265.732267539505	2025.38186517896	901.703460129035	197.221757131139	1621.42623941017	1420.38960022214	160.62583724118	2002.2462378156	1026.14708498814	186.671123031242	1921.76224048872	1172.18385838741	149.482276640875	1808.64557181892	983.359313890059	149.137938458618	1917.97460505301	1228.77758384322	202.083012999424	1966.3028861405	820.114293480459	163.019476703118	1339.11552811084	1790.08765565192	217.601098547641	2670.04946742954	1062.88232852149	219.119607655062	1873.75688241957	1377.28722179817	146.101880377306	1914.3718415825	930.545052458271	207.483074807025	2029.11267976748	1361.81748475771	134.691652681542	2583.70007771248	904.443936409779	150.064502673146	2087.46582102885	1063.950202775	155.04072345119	2007.59078808847
823.99944360285	160	1399.86072559345	1367.30937088741	265.757220323815	2026.10923241534	901.877458477482	197.200676599405	1621.64340764013	1421.00423740436	160.62996630277	2003.15716873762	1026.06440204269	186.66656069237	1922.23743954581	1172.53900739011	149.488160640423	1809.56042112891	982.926841062359	149.103453981298	1917.77131226505	1228.8441086613	202.099957228657	1967.24579600587	820.168710072379	162.964747684886	1339.70964107699	1790.38380675253	217.608856378197	2672.18048611077	1062.72028711448	219.03188208615	1873.98266401532	1377.74601741872	146.064502673146	1916.17970121342	930.212842545615	207.441285990799	2029.43888615913	1361.69934354243	134.661893284665	2584.87369243435	904.156607018978	150.035529024564	2087.94632288368	1063.7367669316	155.023779221956	2007.88921621384
824.501211619741	160	1401.00436188387	1368.00812401762	265.796616552108	2027.5931621063	902.172467460106	197.210007328531	1622.61065533607	1421.77265235726	160.653483666865	2005.14134965882	1026.18922709292	186.685239229338	1923.37628236209	1173.20269339747	149.515807066108	1811.35618542177	982.753019261808	149.078884203872	1918.27691466405	1229.18452368293	202.149364352165	1968.89854174051	820.43678117967	162.926281898014	1340.99519415084	1791.01086959942	217.654526535421	2675.58288697997	1062.76274374466	218.968332572101	1875.01034928912	1378.47430376908	146.035529024564	1919.01219685118	930.006803358519	207.434999713587	2030.21243724357	1361.85848906183	134.645329051294	2586.99070185083	904.023651412379	150.016400054859	2089.06241398166	1063.71316929901	155.011749802608	2008.84027858485
825.124608296558	160	1402.90330318579	1368.77420450458	265.85194966362	2029.74724154013	902.580444414051	197.245796311072	1624.2874515731	1422.6723210142	160.693316231353	2008.06392559229	1026.54845800706	186.723863483927	1925.15870804658	1174.16031762066	149.563106711072	1813.93732417455	982.88091492809	149.06715711894	1919.52717863675	1229.80620741734	202.227117774103	1971.19898039292	820.924073765482	162.909690139794	1342.90341726904	1791.95501185862	217.731050947662	2679.97286537307	1063.01034884618	218.934796584647	1876.71098244561	1379.43538981991	146.016400054859	1922.57679763344	929.921439963203	207.4623571157	2031.33790508626	1362.24900748082	134.644515778148	2589.80217933884	904.018931724923	150.005977475148	2090.63477952798	1063.83785622809	155.004650252251	2010.28498038052
825.834312199127	160	1405.37229601575	1369.57430083971	265.921369787903	2032.3743126192	903.070347658415	197.300291701714	1626.50004413932	1423.65683746128	160.742280163034	2011.63616204832	1027.1312111962	186.775790663465	1927.4541979695	1175.34989511483	149.623732531983	1817.07024874271	983.302807954225	149.070480148294	1921.4270197331	1230.67351194343	202.326872762363	1973.97800026516	821.601866841206	162.915859318303	1345.28346931481	1793.14003892276	217.826680002818	2684.92570478481	1063.42149732292	218.932259373162	1878.85612046216	1380.53915904377	146.005977475148	1926.46031842302	929.934257834551	207.516598376625	2032.661074686	1362.79361188535	134.66015897693	2592.94328147918	904.09589320881	150.001327222897	2092.40147263762	1064.05485614838	155.001327222897	2011.99586330194
826.572324832594	160.001327222897	1408.13015888275	1370.3564478671	265.998245062042	2035.19446492256	903.586467223134	197.365046584214	1628.97105948597	1424.65264077796	160.791936726549	2015.45804347777	1027.88797518411	186.832660177739	1930.0343388748	1176.67425479214	149.689527292496	1820.4146891806	983.962844653411	149.089306783583	1923.7644225637	1231.71238306693	202.440770141163	1976.97632022419	822.412433353298	162.94096846293	1347.91433994905	1794.44381663518	217.927879019572	2689.93204547518	1063.92390809005	218.957368517789	1881.13916109645	1381.66053090798	146.001327222897	1930.193253734	930.005100684988	207.58898655594	2033.99017815634	1363.39018378657	134.690866933246	2595.99418041693	904.191568228385	150	2094.05898691005	1064.29646222858	155	2013.70738215047
827.268656559334	160.004650252251	1410.84463202945	1371.06057427934	266.073173927611	2037.88711837735	904.061839451035	197.432867617483	1631.36445775586	1425.57100260797	160.833616949548	2019.08360346418	1028.73724869439	186.886369820086	1932.61035954097	1178.01190518315	149.75121327536	1823.58221418441	984.765597818079	149.122582951003	1926.25114543512	1232.81548061041	202.559229858837	1979.88837412504	823.276037913156	162.978753251928	1350.53918407475	1795.71497372979	218.020960493847	2694.47951469541	1064.42551097569	219.003859696781	1883.23118417726	1382.66015454723	146	1933.32744130984	930.082826280634	207.668826756626	2035.12567121071	1363.93014149418	134.733329429772	2598.55905755218	904.235888074022	150	2095.31159154214	1064.49277668869	155	2015.1583052981
827.848665351469	160.011749802608	1413.18509631154	1371.61934356431	266.135033495819	2040.1361445206	904.425913698034	197.496745709823	1633.34589172856	1426.32344833768	160.861263375233	2022.09248113429	1029.57782024043	186.929519851706	1934.87799194605	1179.23429558097	149.800106449116	1826.20165938124	985.594040073431	149.168239330096	1928.57087477117	1233.86109359193	202.67180001474	1982.40746455755	824.100829876297	163.021246748072	1352.895106191	1796.79622155713	218.094964850058	2698.1136355809	1064.82970388088	219.061970199262	1884.82183971997	1383.40525686976	146	1935.50037344371	930.112066703321	207.747365996432	2035.88735029715	1364.31056153077	134.782895020996	2600.32251344056	904.164504584376	150	2095.91373790489	1064.57830244564	155	2016.12097749486
828.251277577667	160.023779221956	1414.8794458541	1371.97517488252	266.174800313142	2041.67939339431	904.621841846252	197.554579606586	1634.63605636187	1426.84250589333	160.872766796746	2024.16977055704	1030.3090542304	186.958493500288	1936.56585442785	1180.23349189025	149.832043345556	1827.98101962106	986.333975761885	149.221755231254	1930.43433978467	1234.73418711012	202.769559196543	1984.27532784195	824.798442081737	163.061685982864	1354.7505357095	1797.55140349229	218.143713693368	2700.5029825916	1065.05687981636	219.121515686083	1885.66669680591	1383.79762751842	146	1936.48740617397	930.040840895302	207.818015060839	2036.13050323032	1364.44516574695	134.834415115697	2601.08139505546	903.923423587775	150	2095.69455919925	1064.49547777375	155	2016.42449710433
828.437192150843	160.04072345119	1415.75749953023	1372.08661463558	266.18682973249	2042.34768267528	904.611986497783	197.602747420575	1635.05539112599	1427.09594363639	160.869440708479	2025.15823642766	1030.84656361793	186.971850142533	1937.49249454221	1180.9368360007	149.845661486523	1828.77488368089	986.888277257876	149.279747595733	1931.63014752071	1235.34325469486	202.844863320374	1985.33442265792	825.29654559517	163.094768409095	1355.93868252376	1797.88560823509	218.166544355885	2701.47517194681	1065.05337523358	219.172521831033	1885.62498880388	1383.78635076203	146	1936.22343564639	929.828464413473	207.8760898261	2035.76955702504	1364.27132491155	134.882067301247	2600.77244813199	903.477887164245	150	2094.58456228102	1064.20239448166	155	2015.98147474851
828.398578008509	160.061156926116	1415.77896021694	1371.94025431288	266.171106694758	2042.09626585854	904.38775940237	197.641112342364	1634.55030860727	1427.09860375533	160.856345924096	2025.08410475852	1031.13890317455	186.970243302896	1937.58254824421	1181.32154020919	149.844596121488	1828.59475169987	987.191771540862	149.33756254096	1932.04100368648	1235.63882103588	202.893990827142	1985.54179872603	825.550609786997	163.118459717673	1356.38520492964	1797.76258284413	218.166539618284	2701.0437598089	1064.80093768466	219.207792126222	1884.68051844585	1383.37841477312	146	1934.80950608861	929.450709981379	207.921115796128	2034.77427802714	1363.7538382814	134.922443019025	2599.43914293004	902.814946782381	150	2092.60504941993	1063.67341915172	155	2014.78133412203
828.157610870719	160.082403674188	1415.03071007649	1371.55327477337	266.13300363083	2041.00155695003	903.965708511942	197.66820686553	1633.19090300333	1426.9018901257	160.83948960824	2024.13943400881	1031.17671105637	186.957949325913	1936.87936554789	1181.41886197604	149.834839355989	1827.60323762684	987.21722310767	149.393641499765	1931.6524913575	1235.62148800038	202.917770049098	1984.97357202464	825.55312144309	163.133026348506	1356.12258812324	1797.21087234871	218.151297800637	2699.40344946652	1064.31870450434	219.22314450535	1882.94676611304	1382.63718668247	146	1932.48816314242	928.902709439912	207.953299073663	2033.19355083137	1362.88371711195	134.951971850766	2597.24136395558	901.943942941303	150	2089.88408754535	1062.90159347236	155	2012.90868213854
827.759278606205	160.101082211157	1413.70510882553	1370.96733236909	266.08064873623	2039.25000245336	903.384844700156	197.683028626688	1631.15972822657	1426.58254732795	160.824945695083	2022.62985373996	1030.98915927307	186.938843073884	1935.53795021801	1181.29824492561	149.823618472186	1826.07857223131	986.978006357044	149.445070622175	1930.56035798598	1235.33423595617	202.921115796128	1983.80800453112	825.334805671679	163.141805662347	1355.28329119648	1796.32026248175	218.129511685363	2696.89406940197	1063.6608153094	219.218214705933	1880.64764835052	1381.67313854667	146	1929.60052350265	928.205043094202	207.974893555147	2031.14873211688	1361.68500605672	134.970243302896	2594.4115634129	900.897534607822	150	2086.63248106969	1061.90151432072	155	2010.52182566772
827.266386986099	160.1138973788	1412.05774676982	1370.24988660001	266.023779221956	2037.09324562472	902.702606129246	197.683829434088	1628.71443027004	1426.23194310275	160.816514114655	2020.90918237932	1030.64162569576	186.917596325812	1933.7862630867	1181.05443538161	149.816514114655	1824.34164519432	986.527303863546	149.490875099589	1928.94580081465	1234.85594740143	202.911618850664	1982.27813550688	824.955629958465	163.149538075452	1354.07851680063	1795.21484035886	218.111880754552	2693.95048622714	1062.90119551591	219.197628275886	1878.08217755001	1380.6160961555	146	1926.53708308565	927.400715743548	207.988250197392	2028.82861417756	1360.20985070354	134.976500394784	2591.23876173062	899.729758790702	150	2083.12661446626	1060.70749756568	155	2007.83907948471
826.748790643271	160.118459717673	1410.36614703503	1369.48051383683	265.973151740465	2034.81499842583	901.987661127272	197.669804208283	1626.15567781945	1425.93830179436	160.816514114655	2019.31847952427	1030.21856237067	186.898917788843	1931.89422124777	1180.78553663654	149.816514114655	1822.70790373616	985.949777211814	149.530102549712	1927.05846363429	1234.2821793602	202.897590565946	1980.64007048026	824.498215252407	163.159960655163	1352.76482318971	1794.04474049082	218.105986455182	2691.04494658907	1062.12910104192	219.166889389524	1875.57995894912	1379.60323712956	146	1923.69266775036	926.551972012333	207.995349747749	2026.47501859169	1358.54292608133	134.971570525793	2588.05689554585	898.508192592734	150	2079.68615893235	1059.37494283046	155	2005.12483985891
826.276195874108	160.115224601697	1408.88952549575	1368.74699283223	265.937453799788	2032.68567109397	901.314923518841	197.641183100288	1623.78271980122	1425.7825023777	160.824945695083	2018.1380380489	1029.80933588001	186.886102621199	1930.13672597016	1180.57922140689	149.824945695083	1821.44156661962	985.348296442432	149.563099100392	1925.1822848304	1233.71053215096	202.8861026212	1979.13521718671	824.054624460181	163.177334686911	1351.59620661186	1792.96097416552	218.118303149841	2688.60000847877	1061.43170441209	219.134876927986	1873.43708185478	1378.75844329008	146	1921.39756810205	925.732450039109	207.998672777103	2024.34656500507	1356.79840291447	134.957949325913	2585.20698677756	897.313100794086	150	2076.62911804994	1057.98054915906	155	2002.65549374621
825.912134578813	160.105732463407	1407.84670160968	1368.13160862818	265.924374004936	2030.94078723584	900.755750944778	197.60232521811	1621.86527554331	1425.82667202812	160.840816831137	2017.56598067076	1029.48782853896	186.881540282327	1928.75250299619	1180.49743983553	149.840816831137	1820.72532477681	984.822713492523	149.590085913474	1923.58878956671	1233.22179313535	202.882867505224	1977.96287899307	823.710767617227	163.2035064968	1350.78988476006	1792.0945832806	218.150766044115	2686.94040798027	1060.88247229636	219.110042592925	1871.87448095426	1378.17167881825	146.001327222897	1919.88374306425	925.01096992334	208	2022.6724966293	1355.10536118005	134.938843073884	2582.9929332518	896.220815007382	150	2074.2226218007	1056.61334202182	155	2000.6790695793
825.70997210601	160.094153476796	1407.39568991138	1367.71175786494	265.938031700623	2029.7579907606	900.374931520965	197.559491716698	1620.60539285879	1426.1160867015	160.862323399243	2017.70529425127	1029.30177045822	186.887429844096	1927.91593747218	1180.57399034301	149.862323399243	1820.64832777204	984.448783239452	149.61276847767	1922.48837532906	1232.87164827877	202.892080096347	1977.25878907354	823.542110392147	163.238067372735	1350.49449754536	1791.54712589721	218.20201132925	2686.24738864389	1060.53064344649	219.099174180135	1871.00141311249	1377.89565124391	146.005977475148	1919.25000683724	924.438248447213	208	2021.61301814764	1353.59131304099	134.917596325812	2581.6422873969	895.294631308305	150	2072.6469209061	1055.36237879078	155	1999.38707748116
825.707418746495	160.084936148072	1407.6220417962	1367.54360834984	265.981147739745	2029.24192148703	900.216797638681	197.522738234204	1620.11801354333	1426.66587858894	160.887167986235	2018.55519093632	1029.26741064369	186.904895263991	1927.73183166769	1180.81117332283	149.887167986235	1821.22746051075	984.264431419374	149.63198848924	1922.0148822452	1232.68598277757	202.916645066599	1977.10472552289	823.602315087591	163.278508286215	1350.78393457294	1791.38260994762	218.267020341468	2686.55563197056	1060.39861434635	219.107313678079	1870.81747918692	1377.94427008343	146.017727277756	1919.4680566447	924.039739906458	208	2021.22877673553	1352.36278853715	134.898917788843	2581.25658234138	894.578275028859	150	2071.9631632301	1054.30526881231	155	1998.87049193904
825.920026378744	160.08144690238	1408.53336199746	1367.65839153501	266.050560623118	2029.41338788928	900.302026840698	197.501665430615	1620.41907530557	1427.46302948208	160.912946073561	2020.0182105166	1029.37513736927	186.93399638067	1928.2185331013	1181.18587639146	149.912946073561	1822.39709661075	984.272243296274	149.64882099676	1922.20608363263	1232.66434499427	202.957775602627	1977.51241575712	823.916355147769	163.321424343963	1351.65493868093	1791.61595170211	218.340216986754	2687.7695984496	1060.47683006113	219.136987199405	1871.22954849693	1378.29239319278	146.040179276815	1920.40454583761	923.813986696229	208	2021.47304091797	1351.48760706356	134.8861026212	2581.79197612978	894.090433246037	150	2072.10847687589	1053.49237358094	155	1999.10216088437
826.344145552134	160.086263370969	1410.07030955254	1368.05913383369	266.140854403134	2030.22042244996	900.625320701996	197.5029943322	1621.4381522031	1428.47245316549	160.937515850987	2021.93603504775	1029.59940608691	186.974372098448	1929.32871307967	1181.65775772032	149.937515850987	1824.04133105643	984.449916222441	149.665651895166	1923.02570460221	1232.78851099024	203.016422772535	1978.4413246773	824.479792905007	163.363213160188	1353.05036432776	1792.21658630838	218.415669258532	2689.71748154999	1060.73299297599	219.187962414309	1872.09929617927	1378.88637316884	146.076252475754	1921.87729404224	923.738942160604	208	2022.22260428944	1350.98864287437	134.881540282327	2583.08765700733	893.826614922843	150	2072.92875969453	1052.94021850633	155	1999.95056158048
826.952878092747	160.100130951944	1412.11323595493	1368.71775518164	266.245425859983	2031.54276805684	901.156216644894	197.530618399348	1623.03212017012	1429.64161308785	160.960603771707	2024.11644091443	1029.91706212224	187.023779221956	1930.96895032727	1182.18803561528	149.95927654881	1826.02402155531	984.771435402281	149.68377212049	1924.39880843197	1233.03612560292	203.09091362322	1979.81752821011	825.260018473458	163.400044652147	1354.8840764809	1793.12426889247	218.489641352292	2692.20882138444	1061.12321647614	219.257284255818	1873.29187907095	1379.66479458457	146.125659599262	1923.71089746349	923.786815620118	208	2023.30454125282	1350.85066445703	134.886102621199	2584.89876752121	893.76829992399	150	2074.20947059614	1052.63422306204	155	2001.20103042341
827.70354227744	160.122132518266	1414.50434691712	1369.58139800725	266.355833993091	2033.21717201563	901.846130988308	197.581624544297	1625.01538289939	1430.91645757804	160.980871030295	2026.37692325608	1030.3122451999	187.07810115535	1933.01975604216	1182.74801907184	149.976220778044	1828.21029321969	985.219476278669	149.704895217964	1926.23277382026	1233.38905837322	203.178232107294	1981.54814261857	826.202035739323	163.428390950576	1357.0590493229	1794.25563017183	218.559229858837	2695.07834424381	1061.59881180264	219.339600016629	1874.70645963498	1380.56553844984	146.184284051494	1925.77648064381	923.927439682453	208	2024.53979749484	1351.02318115769	134.898917788843	2586.95468298479	893.884760604723	150	2075.72330999741	1052.53024827231	155	2002.6055751998
828.544880457933	160.150753626262	1417.08026365833	1370.58564558372	266.46507638204	2035.0779139736	902.637800187432	197.650143482056	1627.19708118442	1432.25276166757	161	2028.59298979301	1030.78568861496	187.131810797696	1935.35627070086	1183.33450661783	149.988250197392	1830.49134116579	985.793196697262	149.730701176423	1928.43578381851	1233.84384136932	203.274399508565	1983.53966036301	827.240366849593	163.447351142111	1359.48422467442	1795.53006287887	218.624256026508	2698.21372400998	1062.11967359518	219.429020338555	1876.29088446169	1381.54530943412	146.245970034358	1928.01111684764	924.136630859373	208	2025.77282438011	1351.43648154625	134.917596325812	2589.0178589965	894.138696235047	150.001327222897	2077.26820945009	1052.56869632913	155	2003.93343519944
829.420734857616	160.182962390819	1419.68256925794	1371.65967632074	266.56739477423	2036.97450440693	903.468540703709	197.726927714332	1629.39448728755	1433.61227709027	161.019128969705	2030.69605807331	1031.34284200904	187.178835633094	1937.86692775315	1183.95875474839	149.995349747749	1832.80415398421	986.49615727761	149.761648272924	1930.92317343364	1234.40261996088	203.374962962797	1985.71954123844	828.309429586571	163.456916204248	1362.07531293345	1796.87983681493	218.685412952625	2701.54374967487	1062.65445982511	219.518073130364	1878.02333848827	1382.58014887623	146.303360739293	1930.39537445707	924.394551071964	208	2026.88913904443	1352.0133287587	134.938843073884	2590.91227173375	894.491162553591	150.004650252251	2078.68926382798	1052.68414348452	155	2005.00776105414
830.277404469575	160.215777756107	1422.169892647	1372.73512127371	266.658984847096	2038.7855786281	904.277142611714	197.802638923	1631.44817083809	1434.96128156877	161.039396228293	2032.66098002867	1031.9850677359	187.21365236706	1940.44801811121	1184.63556342728	149.998672777103	1835.11032530204	987.323773476652	149.795276911358	1933.60267103069	1235.06796702541	203.475498961751	1988.02330017435	829.351879504303	163.458124930004	1364.75211584833	1798.2540351297	218.743513910331	2705.02550058064	1063.18013502163	219.599582858938	1879.89262220236	1383.66076010662	146.349839362489	1932.93521050198	924.684476415131	208	2027.81739699496	1352.67862276299	134.95927654881	2592.53097267083	894.903160560348	150.011749802608	2079.88618813524	1052.81679495826	155	2005.71958136151
831.071328889551	160.245970034358	1424.4273450542	1373.7605191878	266.738153405309	2040.43102081297	905.012356969945	197.869690148487	1633.23458450573	1436.27311137225	161.062484149013	2034.49057447273	1032.70297437408	187.232357096474	1943.01294961074	1185.37219706701	150	1837.38721936161	988.258389536586	149.828979115151	1936.38096768592	1235.83355407941	203.57204502648	1990.39981014091	830.3202200551	163.454824618326	1367.42200018288	1799.60912642268	218.798786836899	2708.58831391411	1063.67870418033	219.668476985386	1881.85903413548	1384.77762925512	146.383110722735	1935.61064951281	924.990014294847	208	2028.52696345624	1353.36424095596	134.976220778044	2593.83639007656	895.336624103582	150.023779221956	2080.81133527048	1052.91776053853	155	2006.03095630125
831.768268984309	160.270539811784	1426.36717494026	1374.69504308413	266.802545447401	2041.86659845066	905.632255712167	197.922420301349	1634.66914821671	1437.51907372065	161.087053926439	2036.18971933554	1033.47041882949	187.232357096474	1945.49008381524	1186.15461826913	150	1839.61113564423	989.259761435837	149.858738512028	1939.159910309	1236.67610852155	203.660312069993	1992.79868223898	831.183086472417	163.451044622553	1369.98434672483	1800.9144436372	218.850461924548	2712.12464998128	1064.13762027771	219.720779423187	1883.84670944516	1385.91912926219	146.402592233027	1938.35691385224	925.295044542082	208	2029.01838898269	1354.0163068759	134.988250197392	2594.8384966398	895.760108506268	150.04072345119	2081.45795952775	1052.95469951704	155	2005.95925728908
832.351674780544	160.287886318682	1427.93678884337	1375.52145775605	266.852761036881	2043.08020841243	906.116695396924	197.959820723185	1635.71181917599	1438.68552890744	161.112832013765	2037.76289558768	1034.24910606372	187.214979589957	1947.82285398431	1186.95388707842	150	1841.74770303037	990.275295295102	149.88074007835	1941.84478486937	1237.56028178847	203.738153405309	1995.16963297207	831.919905687077	163.452519943772	1372.32937618006	1802.13897721145	218.896792399797	2715.48125653708	1064.54510006893	219.755530911825	1885.74343555112	1387.06127254094	146.412340666957	1941.05873791081	925.583968602001	208	2029.3122620388	1354.59623962409	134.995349747749	2595.56676848916	896.149349659271	150.061156926116	2081.84607154029	1052.91160415777	155	2005.55242214631
832.822633651475	160.298186992516	1429.12491567007	1376.24430305321	266.888119245448	2044.09267178228	906.464882116799	197.982272722244	1636.37162770084	1439.7740299903	161.139003823654	2039.22327477276	1035.00079557454	187.183485885345	1949.97962872449	1187.73743050935	150	1843.76567238753	991.250937262372	149.893469370443	1944.36081824233	1238.44703993064	203.803872670298	1997.4685717143	832.519983530845	163.463487472853	1374.36056074879	1803.25300854055	218.935497326854	2718.49330717121	1064.89319332294	219.774899021716	1887.43136899831	1388.1703766423	146.41796010887	1943.57636582893	925.845613716727	208	2029.45351885474	1355.08389013106	134.998672777103	2596.07765500303	896.490847392537	150.082403674188	2082.02601952511	1052.78921496397	155	2004.88637014735
833.195878237763	160.30151002187	1429.95383973818	1376.88444605868	266.90908637678	2044.93736493579	906.697798449411	197.994022524852	1636.69470018435	1440.80137646559	161.165160644011	2040.57772302991	1035.6928933567	187.143560600305	1951.94249280117	1188.47860582303	150	1845.6376238912	992.142483285557	149.896792399797	1946.65068319016	1239.30004654832	203.857411289132	1999.65412658115	832.982120663605	163.487471067501	1376.01333879253	1804.23148211573	218.965798198333	2721.02998059345	1065.17640306469	219.783527108749	1888.81941830861	1389.21291071989	146.426220665785	1945.78712470656	926.072875106958	208	2029.49866287542	1355.47593637319	135	2596.43632540508	896.781284233017	150.101082211157	2082.06443271821	1052.60011218172	155	2004.04885973069
833.49544750068	160.300963344187	1430.4792182011	1377.4735082724	266.917225874723	2045.65836928209	906.849415658721	197.998672777103	1636.75617108998	1441.7920725701	161.192781582672	2041.84105437542	1036.30758125111	187.101880377306	1953.70860311051	1189.16509589528	150	1847.34900361618	992.921497165559	149.893817103856	1948.67691568732	1240.09423941443	203.899869048056	2001.69315391089	833.311615589435	163.525278574175	1377.27912973096	1805.05565265239	218.988250197392	2723.05223119482	1065.39347055828	219.787298892152	1889.87937370281	1390.15781159024	146.443302615047	1947.63689126967	926.264620676707	208	2029.52260772	1355.78531376955	135	2596.7389838357	897.024609110949	150.1138973788	2082.0522804672	1052.36616017623	155	2003.14751403075
833.744812212136	160.298969285991	1430.78472249669	1378.04018896602	266.915063851928	2046.31094697664	906.9560123738	198	1636.65312079502	1442.76467519871	161.22366516216	2043.03388100075	1036.83980441721	187.064502673146	1955.27968963531	1189.79652265075	150	1848.89887575818	993.576268410526	149.887167986235	1950.41584891351	1240.81382674442	203.932865598736	2003.55852506899	833.518775297638	163.576080346432	1378.20440664181	1805.71365417074	219.005772327461	2724.6165504611	1065.54406126521	219.790530879642	1890.65160676315	1390.98174253218	146.471915974421	1949.1447500884	926.426555092815	208	2029.61163780608	1356.0385536182	135	2597.10739545264	897.231114257174	150.118459717673	2082.09703789084	1052.11396650683	155	2002.3027914852
833.966128963025	160.299770511053	1430.96829300551	1378.6078450684	266.9071737461	2046.95114538702	907.050797912211	198	1636.48681577935	1443.72974878496	161.261065583996	2044.18747993753	1037.2936466061	187.035529024564	1956.66198226226	1190.37687053185	150	1850.297701677	994.106728116547	149.881452368949	1951.85486484704	1241.45010099806	203.957949325913	2005.22979904159	833.615884172614	163.636786839812	1378.88559719916	1806.19551388899	219.023779221956	2725.87014216106	1065.62735098032	219.797721471864	1891.23697869517	1391.66497536222	146.512355209212	1950.40771650829	926.568154663053	208	2029.85008585486	1356.26637001111	135	2597.67052944593	897.411517037243	150.1138973788	2082.30477220467	1051.86876064612	155	2001.6314927509
834.171175271323	160.306691379326	1431.13501226573	1379.18222167679	266.898917788843	2047.64418171292	907.152526307663	198	1636.35750936089	1444.67776524028	161.30536415643	2045.35211241776	1037.67794840932	187.016400054859	1957.85844121997	1190.91387727602	150	1851.5632638941	994.519325588661	149.88021305943	1952.98576543024	1242.00008693982	203.976220778044	2006.69235015359	833.618085613992	163.702450657458	1379.44252986367	1806.50121409743	219.045373703441	2727.00278469514	1065.64480325081	219.808633553603	1891.76521673898	1392.1985991558	146.560644995112	1951.56246566031	926.701223710781	208	2030.31063210993	1356.49886840973	135	2598.54967285245	897.575564111519	150.101082211157	2082.76577786524	1051.65076792492	155	2001.23411134398
834.364150787508	160.322489571056	1431.39114944335	1379.75693925582	266.896525200911	2048.46603397086	907.265615771954	198	1636.35730983078	1445.58507707504	161.356544245862	2046.59958081355	1038.00369134251	187.005977475148	1958.88437596599	1191.41615813724	150	1852.73517887222	994.822391519873	149.886102621199	1953.81386099309	1242.46719202248	203.988250197392	2007.95430300489	833.546002010505	163.767822189035	1379.98778381043	1806.65028430739	219.074233951621	2728.18724793583	1065.6038578699	219.821599948054	1892.35024265652	1392.59300527455	146.611016618573	1952.73765093318	926.835362712573	208	2031.02418762851	1356.75956877286	135	2599.80890987997	897.730136588237	150.082403674188	2083.52045113313	1051.47420807243	155.001327222897	2001.16255824135
834.538917797166	160.347194565202	1431.82711446117	1380.3063588562	266.90664672718	2049.49359939108	907.375345874775	198	1636.55824750761	1446.40907341711	161.410748886425	2048.00300685753	1038.27623302525	187.001327222897	1959.75916585885	1191.88828731639	150	1853.86405289359	995.017328264276	149.898917788843	1954.35088519732	1242.8563288613	203.995349747749	2009.04495086561	833.423484006777	163.82843764055	1380.60551409619	1806.67901616628	219.110833148395	2729.55017190825	1065.51629310522	219.8330878928	1893.06337520817	1392.87346093963	146.657504669079	1954.03394127545	926.976352787278	208	2031.97741228933	1357.06520983562	135	2601.45104257584	897.879666836597	150.061156926116	2084.55714443727	1051.34891330351	155.004650252251	2001.41582947231
834.683028455117	160.379613215047	1432.50205793558	1380.79819896436	266.932803547537	2050.78679421395	907.45527859326	198	1636.99955712062	1447.09789595786	161.464015754605	2049.61217642428	1038.49845006516	187	1960.5052533882	1192.33513293922	150	1854.99321912477	995.100055695854	149.916269102915	1954.60918854158	1243.17667247519	203.998672777103	2010.00509577482	833.283334916684	163.879412855454	1381.32798628603	1806.64737147193	219.153555464955	2731.12732898008	1065.40121224559	219.83871212194	1893.90304232927	1393.08491161815	146.695058046036	1955.48151024456	927.122812156696	208	2033.10982344446	1357.42332082053	135	2603.42048263331	898.024008427649	150.042050674087	2085.81212061294	1051.28119911521	155.013077025505	2001.94792766939
834.78319437853	160.415780930619	1433.43827218641	1381.1968465544	266.977801992715	2052.37756720764	907.470766926406	198	1637.6814482579	1447.60159496026	161.511406857289	2051.43308439725	1038.66862572613	187	1961.1501800723	1192.75782961038	150	1856.15401257179	995.059933136724	149.932865598736	1954.61373506813	1243.43857330421	204	2010.88807618519	833.159683966514	163.917792766774	1382.14591432912	1806.62388768887	219.198833526873	2732.87993913379	1065.279779389	219.834061869689	1894.80654048629	1393.27273630314	146.721229855924	1957.04393148332	927.26399589012	208	2034.31854522249	1357.82875443584	135	2605.60471470585	898.156936203816	150.028429474207	2087.17391139107	1051.27361995561	155.028429474207	2002.67401381995
834.830637655638	160.450239561778	1434.61865904204	1381.47962118643	267.040179276815	2054.25460552063	907.391407843807	198	1638.56568740792	1447.88732907582	161.548265804524	2053.42609630827	1038.78612055684	187	1961.70462324133	1193.16181418451	150	1857.33424286189	994.887709265758	149.942876493951	1954.38347770671	1243.65652614042	204	2011.72953244533	833.084712573293	163.940222048158	1383.00119598776	1806.67396184595	219.241586843051	2734.67809188376	1065.16919492293	219.815360615045	1895.64797073688	1393.47304203697	146.732956940856	1958.59699856704	927.382308667667	208	2035.47930885713	1358.26532391686	135	2607.85712913593	898.267084065969	150.023499605216	2088.50647377674	1051.32767358344	155.052473253798	2003.49398863101
834.83018361019	160.480607512826	1435.99471599206	1381.6433499742	267.117504983692	2056.36253611602	907.201108928368	198	1639.58273970055	1447.95290770598	161.571930920657	2055.51763863609	1038.85167029924	187	1962.1646603856	1193.55876970721	150	1858.48859824667	994.583072621848	149.939364530583	1953.94306694043	1243.84888137102	204	2012.54342595816	833.085406835925	163.945136858043	1383.81435971498	1806.84875892689	219.276136516073	2736.34487825623	1065.08230954727	219.780093448342	1896.27508434754	1393.70149705373	146.729359101937	1959.96323797353	927.454973205365	208	2036.46645027347	1358.70213219411	135	2610.00774818112	898.336513487692	150.028429474207	2089.66639044841	1051.43795642776	155.084936148072	2004.30147364389
834.79720535619	160.504212790299	1437.47990026651	1381.70784999275	267.203483779123	2058.58583801906	906.901434952728	198	1640.62823251333	1447.82389188953	161.581966212236	2057.5923596007	1038.8706237606	187	1962.50341533683	1193.96734303556	150	1859.54204121423	994.164124428984	149.917770049098	1953.32158594712	1244.03586671092	203.998672777103	2013.31186688999	833.175874892105	163.931126691343	1384.50692443935	1807.17550096269	219.297383264146	2737.69762215736	1065.02296391196	219.727730825598	1896.55070804236	1393.95417922032	146.710786596364	1960.95011428034	927.458939663327	208	2037.17225590881	1359.09959574469	135	2611.879091641	898.346369507424	150.042050674087	2090.52323740925	1051.59258303639	155.123127125378	2004.9927337314
834.754435816492	160.521303439166	1438.95461073901	1381.7069146386	267.29071434982	2060.75522733099	906.513486602615	198	1641.57476951151	1447.54746284449	161.579142143102	2059.50044812038	1038.84781614563	187	1962.68018040962	1194.40134137065	150	1860.4156692093	993.66562887341	149.877069315584	1952.56455072416	1244.2314312392	203.995349747749	2013.99481660433	833.352856886806	163.898663797069	1385.01633918317	1807.64819370069	219.301945603018	2738.58853779196	1064.98546993605	219.66163929289	1896.37951800206	1394.20732317387	146.678583522124	1961.39830326573	927.374414829909	208	2037.53186923272	1359.41075070655	135	2613.31397949267	898.277982871003	150.061156926116	2090.98597327765	1051.76850416191	155.162239137273	2005.4807332059
834.724979036086	160.532124548614	1440.2730077681	1381.67860856493	267.37056960961	2062.65804759462	906.070621486351	198	1642.28317792029	1447.17925236871	161.564939913901	2061.07179366465	1038.79049394265	187	1962.64498729344	1194.86539632084	150	1861.03849396045	993.139812085649	149.819583152234	1951.72962807261	1244.44042079822	203.988250197392	2014.53334941101	833.599348026235	163.851766429769	1385.31149412348	1808.23853034527	219.288951683717	2738.9505623595	1064.9604213417	219.587117858442	1895.74056405462	1394.43461075384	146.63652498195	1961.23725371892	927.190379642871	208	2037.53180507921	1359.59439460205	135	2614.20535706904	898.119725771291	150.082403674188	2091.01794700312	1051.93585411242	155.196301052989	2005.69977015416
834.722410445481	160.538529322966	1441.27639288952	1381.64826435223	267.434538674241	2064.06794237983	905.60971416181	198	1642.61960904349	1446.76935093239	161.541764438942	2062.13321805274	1038.69908155156	187	1962.36437275015	1195.34107542258	150	1861.37177509742	992.641939903451	149.752011441509	1950.89586736393	1244.64775994628	203.974893555147	2014.87612634861	833.882758602483	163.797037411537	1385.40114805166	1808.89250990859	219.26026538002	2738.81967418268	1064.93440181296	219.513682432109	1894.69312424071	1394.60692009423	146.591435854047	1960.51220634255	926.908058880286	208	2037.22268685033	1359.62285502889	135	2614.53173359783	897.870681176126	150.101082211157	2090.65396541588	1052.06113875845	155.21954192883	2005.62289055345
834.749861391033	160.540525129423	1441.82929394038	1381.62438237069	267.475672685038	2064.79380084287	905.163223671145	198	1642.48481973661	1446.36253964975	161.511312340656	2062.56183177726	1038.57609290133	187	1961.8340231006	1195.79507173936	150	1861.41108496771	992.222481593452	149.683140032737	1950.14735958242	1244.82796699798	203.953299073663	2014.988506031	834.165146326272	163.742542020895	1385.32465701333	1809.54417133796	219.220080274945	2738.32339240366	1064.89599953956	219.448766140444	1893.36785817503	1394.70296585924	146.548521128704	1959.37419765871	926.544282980366	208	2036.70290443141	1359.49167779936	135	2614.35677833754	897.544282980365	150.1138973788	2089.98866551975	1052.11625459399	155.227794757601	2005.25755803847
834.804669163145	160.540551321868	1441.85325716718	1381.60863761291	267.489815075579	2064.73172849803	904.760450859199	198	1641.84271717038	1446.01124462296	161.475498961751	2062.33338093045	1038.42965050063	187	1961.09255510752	1196.19335916873	150	1861.19475906986	991.921399997411	149.624082303222	1949.56596278789	1244.95589723231	203.922443019025	2014.87243044989	834.406891774983	163.696727174085	1385.14140730732	1810.12285456552	219.173988939881	2737.63864958483	1064.83846549385	219.399779491087	1891.93359994633	1394.7079647428	146.513676869888	1958.03436403499	926.127859476409	208	2036.1046594933	1359.21606882541	135	2613.82167709263	897.165237180568	150.118459717673	2089.16108974232	1052.08412535653	155.21954192883	2004.64664223425
834.878286579544	160.537983110764	1441.35690886377	1381.59318751578	267.475244969977	2063.90355038156	904.419803853519	197.998672777103	1640.7378518437	1445.76323634921	161.434368425724	2061.55547695936	1038.27934439981	187	1960.23203434949	1196.52116011293	150	1860.8144295072	991.765182910953	149.584157018181	1949.22450708541	1245.02222511177	203.88074007835	2014.58042789448	834.584060383497	163.666472778992	1384.92654453087	1810.58472957501	219.127777377629	2736.97174513128	1064.7695984374	219.370678374408	1890.57612504615	1394.63222435385	146.487810869184	1956.72694142816	925.699749587606	208	2035.56865969327	1358.83653329804	135	2613.11220602881	896.770403459186	150.1138973788	2088.32712525292	1051.96710349281	155.196301052989	2003.86211958262
834.961521974771	160.532906822141	1440.43906382774	1381.57134479667	267.435059864902	2062.45896676013	904.150927232407	197.995349747749	1639.29057482613	1445.66120821325	161.388296887365	2060.44842870837	1038.15707322776	187	1959.37711348068	1196.79125935236	150	1860.39728854193	991.764997224319	149.570040820086	1949.16621670528	1245.04068124362	203.82843764055	2014.2074682035	834.688473234688	163.653483666865	1384.75491989022	1810.91233320396	219.086263370969	2736.50956550126	1064.70580153181	219.360496663195	1889.46255812001	1394.50330802617	146.469743789745	1955.65591098487	925.306046006964	208	2035.21047716782	1358.4098476224	135	2612.40681699968	896.40247796587	150.101082211157	2087.62220580977	1051.78942237068	155.162239137273	2002.98368053688
835.043712505315	160.526147432605	1439.26526363965	1381.53789243777	267.373525108846	2060.6473948729	903.951807638043	197.988250197392	1637.67095055609	1445.72376922263	161.338368573197	2059.2909447796	1038.10341281748	187	1958.66506513106	1197.04514444269	150	1860.08731768716	991.918831926928	149.584157018181	1949.40217804215	1245.0491033937	203.766494966138	2013.87493043737	834.73140191863	163.655482532234	1384.69100111908	1811.12343880586	219.051146030901	2736.38897084299	1064.6732779936	219.365466017333	1888.71439209252	1394.36489619183	146.454798425881	1954.95839086448	924.99074918598	208	2035.10144007506	1358.00188966335	135	2611.8434298837	896.103319341884	150.082403674188	2087.13769385292	1051.59285085238	155.123127125378	2002.09084275234
835.111881810749	160.515532790393	1438.02907470433	1381.48605902525	267.298181430295	2058.76205380019	903.809352699833	197.976220778044	1636.06476473588	1445.93024238067	161.287214676209	2058.33714231519	1038.15589676082	187	1958.20866090003	1197.33310158893	150	1860.00850295287	992.212251955502	149.622755080325	1949.90318008921	1245.09177495119	203.696473182311	2013.69666176826	834.738741686171	163.666739977878	1384.78668490017	1811.25948367273	219.022451999059	2736.68452532413	1064.6980763254	219.378719269433	1888.40043061353	1394.26642975491	146.437343721665	1954.69200924165	924.788983330201	208	2035.26283282359	1357.67859031472	135	2611.51229589206	895.907443047874	150.061156926116	2086.91464941086	1051.43174184573	155.084936148072	2001.26050876881
835.149927917168	160.501388721165	1436.90649912871	1381.40777658168	267.216319230708	2057.07887064003	903.702336182766	197.95927654881	1634.63730244172	1446.22040198545	161.238067372735	2057.7520819227	1038.33849658266	187	1958.08113432574	1197.69282431348	150	1860.23413885605	992.620439821207	149.678489780486	1950.61880390386	1245.20526614266	203.620386784953	2013.7532287716	834.7397999141	163.679104712785	1385.07019647804	1811.36638499512	218.995349747749	2737.39333390972	1064.79789155361	219.391890036576	1888.52681721667	1394.24125984806	146.412323511502	1954.83168682579	924.721362626815	208	2035.65971639992	1357.49580388931	135	2611.43229141593	895.836587228512	150.04072345119	2086.93228234652	1051.36064840079	155.052473253798	2000.54651125667
835.141229789169	160.482211223977	1436.02257940695	1381.29340644837	267.134876927986	2055.80801472665	903.606940015587	197.938843073884	1633.51410995297	1446.5051003707	161.194800106805	2057.57396845952	1038.65561635932	187	1958.28983694592	1198.1333943017	150	1860.75963252567	993.116365327393	149.740261638901	1951.48299354689	1245.40129942928	203.540551321868	2014.0602327093	834.75840846814	163.685753830405	1385.54190809371	1811.4763462283	218.963143752539	2738.43655146407	1064.97628782879	219.396011370021	1889.04625170927	1394.29803859575	146.375577895095	1955.27628481779	924.794088159515	207.998672777103	2036.22639701795	1357.49248949002	135	2611.58204334369	895.901147845819	150.023779221956	2087.13476549706	1051.42493395312	155.028429474207	1999.9896629939
835.073949138871	160.458033541857	1435.43198897033	1381.13697936214	267.060612751741	2055.05942358257	903.506675280354	197.917596325812	1632.77025393736	1446.69184209258	161.161717680574	2057.71300277838	1039.08961695526	187	1958.79405917449	1198.62370033349	150	1861.50632201886	993.679417696384	149.797131153175	1952.44863975447	1245.66059378398	203.459448678132	2014.57197133598	834.802287537882	163.683407231623	1386.177226306	1811.59244823247	218.919097271995	2739.67231505288	1065.22061513113	219.385676500103	1889.87384407449	1394.40951041042	146.327052047871	1955.87633588381	925.003197139238	207.995349747749	2036.88640740877	1357.68760661126	135	2611.90894132026	896.102000868285	150.011749802608	2087.44690275855	1051.65394239527	155.013077025505	1999.61059722659
834.942636645638	160.428478863954	1435.11621617938	1380.93743644038	266.997293802829	2054.83620312895	903.397298285229	197.897590565946	1632.43221475161	1446.7087361409	161.139527180237	2057.98837200891	1039.60733142093	186.998672777103	1959.5083093663	1199.0994191339	150	1862.32577804931	994.300407879826	149.840996116645	1953.49431387079	1245.93510831475	203.379613215047	2015.17953308183	834.860091155915	163.672061872601	1386.92258718897	1811.68419122683	218.856613122982	2740.91036749484	1065.50439814128	219.358540190262	1890.9017506409	1394.51926978904	146.269207781713	1956.45629603248	925.334040536175	207.986922974495	2037.57222208218	1358.07339344747	135	2612.34661719267	896.429399263958	150.004650252251	2087.79535133196	1052.05243105373	155.004650252251	1999.41305613337
834.751056602823	160.392859226238	1435.00810128783	1380.69961262075	266.947353022915	2055.05869190321	903.288849324828	197.880125146052	1632.49126702981	1446.52085600938	161.12829132738	2058.18906439874	1040.16204104376	186.995349747749	1960.32864171749	1199.47249622916	150	1863.03569552167	994.978138247329	149.867035702693	1954.6275779337	1246.15574840756	203.302199594793	2015.74028234635	834.902123346675	163.65654789727	1387.70015880908	1811.69314054663	218.774209448794	2741.94550659993	1065.79165586214	219.316859967263	1892.01453871622	1394.55172366981	146.207612840713	1956.84214891866	925.76519830881	207.971570525793	2038.22516375795	1358.61525422552	135	2612.80721471812	896.865774180895	150.001327222897	2088.10730552825	1052.60181355881	155.001327222897	1999.37787688224
834.510858527056	160.35118374084	1435.01638906727	1380.43213669045	266.911994814348	2055.5960418112	903.1995419684	197.863813004571	1632.90924011838	1446.13179140934	161.124454348275	2058.1290651198	1040.7024641288	186.988250197392	1961.14081080785	1199.65086832892	150	1863.44308486019	995.708441940482	149.874762603203	1955.85769489372	1246.24573705411	203.227527558715	2016.09765084401	834.886551502121	163.642973173775	1388.41486895221	1811.54471187311	218.673127237637	2742.58130754383	1066.04189147834	219.265366065007	1893.09673900878	1394.425580779	146.148233570231	1956.87924460115	926.265418289958	207.947526746202	2038.79981679556	1359.24801973907	135	2613.1967354345	897.379328086612	150	2088.32080768169	1053.25981862959	155	1999.4762576538
834.240104231298	160.30456599028	1435.04817788048	1380.14817743561	266.89075287345	2056.295933221	903.151405159071	197.844596121488	1633.6176343401	1445.57718915264	161.124861433113	2057.68218705065	1041.17597314747	186.976220778044	1961.83409609067	1199.56025080578	150	1863.37455860714	996.471335316723	149.866117679126	1957.16410846276	1246.13678187178	203.153835081695	2016.10672496946	834.766345928322	163.635476772369	1388.96047957582	1811.15694584533	218.55790263594	2742.64459333989	1066.20947777616	219.209256106584	1894.03234662389	1394.06217743623	146.09668595068	1956.43367125068	926.791485094937	207.913736629031	2039.24493361496	1359.88060446891	135	2613.39444753726	897.921689052996	150	2088.36602611695	1053.96602557288	155	1999.66324941146
833.961707869548	160.255991091453	1435.0407203188	1379.86581968911	266.882867505224	2057.02968735766	903.160817572021	197.818015060839	1634.52635462131	1444.91166438116	161.126974404306	2056.81464976662	1041.53279224774	186.95927654881	1962.31082354699	1199.1595831411	150	1862.71647407362	997.220043649729	149.844596121488	1958.47831602865	1245.78252330637	203.077753421938	2015.66411632311	834.499349483506	163.638538303001	1389.23897247324	1810.45951610145	218.436119888913	2742.01251762304	1066.24853090484	219.153555464955	1894.7136704073	1393.39717427212	146.057123506049	1955.40133395402	927.287256087015	207.870895399474	2039.4939044634	1360.40066871653	135	2613.25266345504	898.43001852117	150	2088.16229561808	1054.649596612	155	1999.88004170272
833.695784047898	160.208134031374	1434.95660149152	1379.60207544162	266.886102621199	2057.69721266444	903.231599307607	197.778859701044	1635.52047043332	1444.1831022176	161.127760222174	2055.55834125324	1041.73004635602	186.938843073884	1962.48871193039	1198.44868910517	150	1861.42735324633	997.88285570945	149.815710386284	1959.6743865444	1245.16524621775	202.99665425297	2014.72035556	834.057798331648	163.649629532305	1389.17005351321	1809.41191429637	218.315122959755	2740.61965242077	1066.11727826363	219.100410568684	1895.04261996945	1392.39706227016	146.029756697104	1953.71717720563	927.690227842331	207.821360807868	2039.47581142583	1360.69573723013	135	2612.62890251274	898.834955149358	150	2087.63339636251	1055.24078658465	155	2000.06913961816
833.456898842179	160.16663249046	1434.78340623166	1379.36790072272	266.898917788843	2058.22940433354	903.352026013476	197.726129548183	1636.46808367186	1443.4215919438	161.126974404306	2053.98626628719	1041.73591178931	186.917596325812	1962.31272526984	1197.46668704951	150	1859.55629408226	998.376119757242	149.784222243893	1960.59844241431	1244.30056585692	202.909291524467	2013.29294574149	833.435887882835	163.66495751507	1388.71023845592	1808.01431068734	218.20201132925	2738.48443200192	1065.78521139569	219.050454729665	1894.94845184489	1391.06418725013	146.014404248402	1951.38287127711	927.945292078036	207.768169922447	2039.1240412822	1360.67877816474	135	2611.40362131541	899.077443753512	150	2086.7219228021	1055.68495390227	155	2000.17340588641
833.251138619606	160.134612370351	1434.52099602944	1379.16716858234	266.917596325812	2058.58316420734	903.49763049594	197.660833260654	1637.2374310211	1442.63794001477	161.124861433113	2052.1883796235	1041.53849239841	186.898917788843	1961.76742128367	1196.28786969803	150	1857.23633230771	998.63058313988	149.755357188539	1961.11354454641	1243.23700598364	202.817043171402	2011.46825816473	832.655217460277	163.679104712785	1387.87020516373	1806.32338837751	218.103990648725	2735.72697279406	1065.24625542222	219.004650252251	1894.41378719435	1389.45405934112	146.009300504501	1948.49859836696	928.012970972918	207.715955398024	2038.41385050339	1360.30770112804	135	2609.55502108194	899.122576907698	150	2085.43222111612	1055.95060610667	155	2000.16504631241
833.076469774356	160.114957402811	1434.17269394076	1378.99194071112	266.938843073884	2058.72971769429	903.635892059779	197.589251113575	1637.71383119674	1441.83165453776	161.123127125378	2050.25090229705	1041.14567531225	186.886102621199	1960.8873700369	1195.0067347165	150	1854.6761360348	998.605346923064	149.73278321757	1961.14472067001	1242.04525808301	202.726383539957	2009.39735261402	831.76230260478	163.687536293213	1386.71489576815	1804.44442537876	218.027050499933	2732.5694324928	1064.52244839611	218.963949518737	1893.47870546662	1387.67073942449	146.014404248402	1945.27283060387	927.884000624214	207.670324865093	2037.37338704775	1359.60739744715	135	2607.18753646505	898.971409884113	150	2083.84231123855	1056.03723421793	155	2000.05375390346
832.9311353027	160.106530629557	1433.74673417642	1378.83645372998	266.95927654881	2058.6578765398	903.739543453499	197.519933961775	1637.82310880285	1441.02287998445	161.122313852233	2048.27336369478	1040.59211819223	186.881540282327	1959.76396899141	1193.73123650826	150	1852.13381888367	998.305598992646	149.719213231676	1960.70948744241	1240.8142981594	202.647437284886	2007.28239661408	830.827217558774	163.687933008655	1385.36556887365	1802.53113264437	217.975502880382	2729.33074522157	1063.66721393082	218.92934612842	1892.25353551204	1385.86671179673	146.029756697104	1942.01953411164	927.575949426634	207.636897470866	2036.08976803183	1358.66160926117	135	2604.54083548731	898.659856371672	150	2082.10657527124	1055.97035315713	155	1999.89153781744
832.81925088581	160.108837341938	1433.26490346617	1378.70115288366	266.977548000941	2058.38407370142	903.792472165356	197.463076913246	1637.5506917115	1440.26807820926	161.124454348275	2046.38590475311	1039.93518181773	186.886102621199	1958.54571139903	1192.5739163079	150	1849.8892626973	997.783543968029	149.715169649728	1959.92805804492	1239.64469184815	202.590134493329	2005.356262714	829.933871142771	163.682356984215	1383.98702226241	1800.76298133646	217.95350131406	2726.39129732436	1062.7600170893	218.903568041094	1890.90381073371	1384.22282665813	146.058450728946	1939.12047449863	927.135146204156	207.620213061666	2034.70458000382	1357.60559487682	135	2601.96758240956	898.25459806638	150	2080.43992413969	1055.79929958687	155	1999.77016225335
832.75512345188	160.117482266015	1432.76684165267	1378.6000776066	266.992900449642	2057.953675208	903.794421205028	197.428208965294	1636.94178490194	1439.66628138468	161.129511685363	2044.76317507751	1039.25496604428	186.898917788843	1957.41425323329	1191.65060607632	150	1848.20410324517	997.13520675633	149.720084459614	1958.99307435881	1238.64383604208	202.565740339074	2003.84933390335	829.16865566607	163.673139655491	1382.76441864013	1799.31746644132	217.961233021744	2724.13749106138	1061.89443649921	218.887429844096	1889.62587952315	1382.92039894684	146.101336202931	1936.96390727321	926.625776246178	207.62278127277	2033.37571124782	1356.59981691618	135	2599.85005012685	897.83842481339	150	2079.06446538981	1055.58357252865	155	1999.78943128975
832.759255969192	160.131624656556	1432.30775039034	1378.55890032367	267.007099550358	2057.43632438231	903.76035243458	197.421917880908	1636.08953794797	1439.34046349723	161.138724206914	2043.6071833144	1038.63894327732	186.917596325812	1956.55410966183	1191.06241240141	150	1847.29112405672	996.478271559323	149.732547156245	1958.13055191815	1237.91129468617	202.581092787776	2002.95822030938	828.606525217558	163.663647447628	1381.86957964721	1798.34407647678	217.997824908035	2722.88633091976	1061.16222424442	218.881540282327	1888.60411912497	1382.11567337557	146.159983372839	1935.86443325615	926.118398090422	207.643188555251	2032.24823224247	1355.79673919747	135	2598.5213824811	897.493803510799	150	2078.16650148409	1055.38095124192	155	2000.02944907838
832.849010392638	160.149543637674	1431.94840750199	1378.60296960036	267.022451999059	2056.91626536923	903.710255550582	197.445158756749	1635.11425409482	1439.39995735187	161.152866667027	2043.11073672064	1038.17443004199	186.938843073884	1956.12210943996	1190.88786161557	150.001327222897	1847.28573343775	995.937555364444	149.750706936288	1957.55292051932	1237.53141144162	202.637957494876	2002.81546119878	828.302406960241	163.657247839588	1381.43558580048	1797.94670980126	218.059419918608	2722.84446448358	1060.6404909579	218.887429844096	1887.98292200518	1381.91976542136	146.232719285566	1936.02744451716	925.677410474092	207.678056503203	2031.43360188388	1355.31882910407	135	2598.20471236837	897.288003059908	150	2077.86391659713	1055.2384720438	155.001327222897	2000.53565540682
833.031356581837	160.172348107746	1431.72834519427	1378.74820118787	267.04072345119	2056.45850908077	903.662571782769	197.495091808519	1634.12522189204	1439.90788268334	161.173675330643	2043.3860418888	1037.92929996758	186.95927654881	1956.20255875562	1191.15946001697	150.004650252251	1848.20794228642	995.614819750002	149.77270850261	1957.39694254577	1237.55204149272	202.731046210061	2003.45423129986	828.278520873371	163.654798471908	1381.53105940826	1798.16024295512	218.140854403134	2724.06927508287	1060.37733016464	218.903568041094	1887.83933995037	1382.37515758659	146.315908708051	1937.50688318561	925.351716362751	207.720797353637	2030.98763074681	1355.23691593429	135	2598.97641903875	897.260450505731	150	2078.18494734702	1055.18393267655	155.004650252251	2001.30562287513
833.296734180654	160.202418414088	1431.6548397594	1378.99580527015	267.061156926116	2056.0948730412	903.629375718043	197.564141968948	1633.19959370339	1440.86276607679	161.202418414088	2044.4305814838	1037.94037594365	186.976220778044	1956.79614297018	1191.8553961484	150.011749802608	1849.95757604762	995.570645517181	149.797037411537	1957.7043437768	1237.97553286021	202.849510665335	2004.80454857758	828.523385428419	163.656792599677	1382.13926380594	1798.94495073012	218.235239341597	2726.43528246656	1060.38461740005	218.92934612842	1888.15702325207	1383.44541546151	146.403281805949	1940.18025019119	925.164887858862	207.764305418492	2030.90976396268	1355.55844120662	135	2600.75932211207	897.41612017048	150	2079.06789804445	1055.22060197364	155.011749802608	2002.29131981808
833.620914030455	160.242387047028	1431.69617835528	1379.33267092621	267.082403674188	2055.81496883765	903.613614894633	197.6430486693	1632.36989281758	1442.19671219993	161.241059824131	2046.10932938981	1038.21352198051	186.988250197392	1957.81784912685	1192.9045612001	150.023779221956	1852.32051978635	995.821458220645	149.821599948054	1958.41333832577	1238.75776055865	202.977955085778	2006.69631966618	828.993237272175	163.662444699949	1383.16864392477	1800.19168174871	218.334506572551	2729.66366297461	1060.64029568609	218.96262229584	1888.84314124322	1385.01864801639	146.4875331187	1943.77194541842	925.11703581883	207.802638923	2031.15974440487	1356.23297853136	135	2603.36542564967	897.728220382055	150	2080.3900128914	1055.33092748477	155.023779221956	2003.41968026082
833.97135250748	160.293876211683	1431.78917898281	1379.73782951434	267.101082211157	2055.56785319493	903.614558218185	197.722796219006	1631.62673915696	1443.80106638562	161.289225959432	2048.18159290048	1038.71728139003	186.995349747749	1959.11587506768	1194.18908562277	150.04072345119	1855.00001375299	996.3349354165	149.846011257763	1959.38201442428	1239.80850446663	203.099615102308	2008.88744218175	829.617543801492	163.671271317132	1384.46524167302	1801.73467466995	218.430125258311	2733.35681258244	1061.08978624419	219	1889.74440279914	1386.91699037381	146.561508340946	1947.88466012727	925.18518417563	207.832312444327	2031.6658842369	1357.16033918466	135	2606.51877237764	898.145066950015	150	2081.98445595291	1055.48004062077	155.04072345119	2004.59726596497
834.315275155316	160.355304936344	1431.85375275083	1380.18547523686	267.113897378801	2055.27946381821	903.628388346455	197.796254363015	1630.93455222226	1445.54731493621	161.343555133736	2050.35703513683	1039.39528119367	186.998672777103	1960.50915530685	1195.57198287058	150.061156926116	1857.67202660017	997.046188669884	149.868375343444	1960.43516942398	1241.00943295927	203.199796126941	2011.1075680734	830.315184358738	163.682444897593	1385.83563705035	1803.38433123646	218.513161020252	2737.05084928244	1061.66369845413	219.03737770416	1890.67659348241	1388.93145799706	146.617592453208	1952.04861479839	925.333766851175	207.850439206872	2032.33850429587	1358.20930114124	135	2609.89434297647	898.601972188514	150	2083.66593451158	1055.62405852371	155.061156926116	2005.72183919857
834.6268099695	160.422410775655	1431.82298205344	1380.65299128995	267.118459717673	2054.88002298714	903.65335925768	197.859145596866	1630.2545868106	1447.31657723843	161.398631553699	2052.3692918018	1040.17210418033	187	1961.8211919773	1196.91752932471	150.082403674188	1860.04251578107	997.871921381361	149.886962838548	1961.39992397665	1242.22868012634	203.268691932078	2013.10318147867	831.00368924526	163.694625543748	1387.08352532832	1804.95579892518	218.575562063061	2740.29504101939	1062.28917501726	219.07065387158	1891.46520779779	1390.85164399414	146.650988847816	1955.79732396951	925.523451753404	207.858738512028	2033.0868267972	1359.24204836451	135	2613.15832193363	899.036182733929	150	2085.25610825823	1055.72159568655	155.082403674188	2006.69324093972
834.890027492882	160.4875331187	1431.65725654424	1381.11802891278	267.112570155904	2054.32902870425	903.686724313478	197.907759153883	1629.55908388127	1449.00623922232	161.44680966751	2054.03264899523	1040.96519603196	187	1962.91010232981	1198.11274234557	150.101082211157	1861.90003851544	998.719788471292	149.898541825159	1962.13689931132	1243.34175764335	203.302896862231	2014.67820725178	831.609729291875	163.705327670626	1388.02820075758	1806.29341739017	218.611347917116	2742.70030568469	1062.8988824161	219.096431958906	1891.96161710512	1392.49955436652	146.660596424334	1958.72139748944	925.713597092961	207.856625540836	2033.81145936171	1360.13044683778	135	2615.98585686462	899.390301518494	150	2086.58765189729	1055.73731234303	155.101082211157	2007.41502845242
835.100137786775	160.541052148344	1431.35305963726	1381.56517708953	267.096431958906	2053.62785452003	903.726218551386	197.940222048157	1628.83515183109	1450.53788703227	161.479895222227	2055.25888610408	1041.68697817496	187	1963.69006879962	1199.07307527609	150.1138973788	1863.15217266933	999.491563900638	149.897336574172	1962.5549577478	1244.24036625426	203.304220956642	2015.72572912673	832.075284365358	163.711737717634	1388.53685619043	1807.28944090337	218.617478347385	2744.01735616945	1063.43547557044	219.112570155904	1892.0761787446	1393.75388598692	146.647235044488	1960.5448899298	925.868812868346	207.847133332973	2034.41152165783	1360.77528462594	135	2618.09129648092	899.624673296295	150	2087.51657943099	1055.65103935062	155.113897378801	2007.80429815445
835.259563794125	160.573545972664	1430.93667311273	1381.98299491371	267.069326648683	2052.8224842101	903.764539570202	197.953843248038	1628.08199141056	1451.8489994435	161.491142298476	2056.04628435981	1042.25209804025	187	1964.11830258458	1199.74037976362	150.118459717673	1863.80557821571	1000.08700297183	149.877046597908	1962.59473418428	1244.83807768348	203.279371632049	2016.21597004217	832.359980648207	163.709200436576	1388.53537831092	1807.88717477449	218.594243033765	2744.1531832083	1063.85304801602	219.118459717673	1891.77740281455	1394.55683698233	146.615195058101	1961.1525507977	925.961264437801	207.830974921608	2034.79022356997	1361.12066546314	135	2619.2656817271	899.717903176671	150	2087.93833844318	1055.46239890115	155.118459717673	2007.80748074335
835.371486227619	160.578082119092	1430.44540940862	1382.36181621018	267.03272745191	2051.98643632835	903.787081017098	197.94674369768	1627.2976415009	1452.88857908685	161.476999907935	2056.44036581001	1042.58345090354	187	1964.1806225733	1200.07721270607	150.1138973788	1863.9275767278	1000.41043906425	149.832833901026	1962.21666357911	1245.07543180751	203.237024504179	2016.17478518764	832.440334798644	163.692233489667	1388.01668892961	1808.0687050103	218.544022637111	2743.1759940877	1064.11278505278	219.1138973788	1891.09404606569	1394.90141693942	146.569932055288	1960.5978785849	925.971900249432	207.808004165623	2034.86621156839	1361.1562536551	135	2619.39681637618	899.66801124265	150	2087.79472780918	1055.18669329427	155.113897378801	2007.40570973369
835.437082177662	160.553086305293	1429.92295711682	1382.6939813103	266.988250197392	2051.21125274427	903.774702739449	197.919097271995	1626.48696140526	1453.61679968252	161.439188926492	2056.51781347313	1042.6232934239	187	1963.88184763289	1200.06588560839	150.101082211157	1863.61643676129	1000.38807282072	149.763786869082	1961.40896299388	1244.9240634419	203.186018359229	2015.66401506787	832.307640706784	163.657779596109	1387.03661980625	1807.84996703699	218.472966487867	2741.28495957214	1064.18649312637	219.09975498826	1890.10858033122	1394.82121736485	146.516768625143	1959.07602338908	925.894299740082	207.776741922678	2034.58809184082	1360.91421086844	135	2618.48933810699	899.494660134946	150	2087.08859704306	1054.85520458603	155.101082211157	2006.62136921899
835.453376212777	160.500779129891	1429.39864437285	1382.97004220282	266.938843073884	2050.57548351967	903.708151891364	197.871685954944	1625.6569024433	1454.00953269824	161.382319412218	2056.34986093942	1042.34552002707	187	1963.22838950764	1199.70999786814	150.082403674188	1862.95844931386	999.986656044888	149.674454460534	1960.18596685994	1244.38994216805	203.134876927986	2014.75311649413	831.970373816178	163.603276477323	1385.70045707591	1807.2786085054	218.388296887365	2738.76633096246	1064.06432306003	219.077753421938	1888.94264376648	1394.38322465318	146.459876393193	1956.8832677036	925.736498269997	207.735097436899	2033.95587748939	1360.46517994066	135	2616.67603009825	899.234842349947	150	2085.89204521105	1054.50794315273	155.082403674188	2005.52096151379
835.417194422417	160.428390950576	1428.89075375308	1383.18456061649	266.88862267723	2050.13402832058	903.578228308703	197.809738473358	1624.82554850388	1454.07094392217	161.314493571776	2056.00546677	1041.76438911976	187	1962.23558289503	1199.04202477077	150.061156926116	1862.02186571194	999.228675597643	149.575629913695	1958.60445750549	1243.51761535703	203.089586400323	2013.51033889252	831.453368513458	163.532127607527	1384.13930102412	1806.42989754249	218.299770511053	2735.93401179767	1063.75895945825	219.049407123508	1887.73603173574	1393.67761333988	146.404201944009	1954.35564175999	925.521480928593	207.68074554492	2033.01056814193	1359.90175229487	135	2614.17201350361	898.937672892393	150	2084.32298787122	1054.18639960366	155.061156926116	2004.19102058156
835.332699112681	160.34528944147	1428.41416318069	1383.34203510707	266.842411114978	2049.91713994908	903.393949514397	197.737629910783	1624.03435617961	1453.84863785649	161.244207230313	2055.56510656378	1040.94158632864	186.998672777103	1960.93970419218	1198.13359431393	150.04072345119	1860.86590269886	998.19962654303	149.482276640875	1956.77493534442	1242.39422350672	203.053800476695	2012.01054709705	830.799462037977	163.451048097322	1382.49875812242	1805.41123281451	218.218691000849	2733.09797126192	1063.31400653853	219.016944229234	1886.63814390156	1392.81996507669	146.352594139515	1951.8260750743	925.282411303856	207.613291972196	2031.84709330695	1359.3256823746	135	2611.26938810897	898.657583362682	150	2082.54700819885	1053.92971430368	155.04072345119	2002.74348968309
835.212590476793	160.261065583996	1427.97678789841	1383.45461975662	266.805026169908	2049.91508413055	903.180387136515	197.661110236143	1623.33305152725	1453.4223259407	161.178661909808	2055.1044706755	1039.97462387019	186.994022524852	1959.4087124565	1197.08939077954	150.023779221956	1859.55579404195	997.033399955311	149.407775490368	1954.8540740521	1241.13680339	203.028429474207	2010.34226764896	830.064900814899	163.37144349248	1380.9150072938	1804.34777806003	218.155136679626	2730.52570866473	1062.79644532942	218.983055770766	1885.78157202517	1391.93657847483	146.310286566364	1949.57621166293	925.056431800832	207.534664888585	2030.57314270803	1358.83322892659	135	2608.25335162154	898.442550758516	150	2080.72445051275	1053.76595030575	155.023779221956	2001.27879823877
835.077254307368	160.18373987712	1427.58013403486	1383.5430860903	266.779130848273	2050.08408740852	902.975454198549	197.584330741468	1622.7673280487	1452.8937847581	161.122582951003	2054.68654676714	1038.98461739627	186.983599945141	1957.74143925056	1196.0372158143	150.011749802608	1858.16875875541	995.893105384735	149.363199953077	1953.02461657959	1239.88096887389	203.013077025505	2008.60822288216	829.311921432297	163.304567890165	1379.50210102551	1803.36758723936	218.116431752569	2728.41905737566	1062.28557563308	218.950592876492	1885.26589765254	1391.15038755698	146.282549168388	1947.80536043395	924.873829561279	207.448935056557	2029.29600096136	1358.49134182123	135	2605.36658975024	898.323897299654	150	2078.99062286357	1053.70669197942	155.011749802608	1999.8785020794
834.947943973873	160.119607655062	1427.21800169306	1383.62198512975	266.766227767251	2050.34916971346	902.812889660263	197.510358647708	1622.3648577748	1452.35309413152	161.078884203872	2054.34013166551	1038.08961922136	186.963143752539	1956.06068599252	1195.09874415148	150.004650252251	1856.78953447497	994.936295411411	149.351450150469	1951.47163021722	1238.75300401123	203.003323029354	2006.91816243251	828.600038859262	163.261319575771	1378.33742624846	1802.57587761832	218.106009172858	2726.89466539371	1061.85398612357	218.922246578062	1885.13998904369	1390.5597246996	146.273684310677	1946.61377569424	924.757579605619	207.361601582951	2028.10002152423	1358.34073227457	135	2602.76674548639	898.316091566794	150	2077.43168580233	1053.75360258089	155.004650252251	1998.58828825394
834.838477971131	160.070480148294	1426.87047158408	1383.69330242789	266.764058016311	2050.61342784118	902.713363794812	197.44209736406	1622.12203147461	1451.85708478851	161.046700926337	2054.04471831223	1037.38770905338	186.930847074603	1954.49112899343	1194.37045378571	150.001327222897	1855.48778543727	994.293755083966	149.367596213553	1950.34988823193	1237.85199121761	202.995349747749	2005.36949711407	827.972746981194	163.245267254324	1377.4609622034	1802.0303099356	218.119607655062	2725.98645570877	1061.55230151692	218.90024501174	1885.40143426175	1390.21114137515	146.285192539364	1946.0086390024	924.715984171443	207.278531003891	2027.03395139327	1358.38482873075	135	2600.51982074465	898.410184433866	150	2076.07632742353	1053.89322761912	155.001327222897	1997.42018850432
834.751251771805	160.038183470358	1426.5098850948	1383.74191903906	266.768169922447	2050.77326677228	902.67661008403	197.380394225742	1622.00275407789	1451.41376436104	161.025106444853	2053.72957512965	1036.93659204922	186.885042597189	1953.14129045441	1193.89904950507	150	1854.30998957908	994.042228858671	149.400046689974	1949.76307328479	1237.22873395317	202.982272722244	2004.03510861446	827.451435086178	163.256091422685	1376.86714606898	1801.72551931932	218.149538075452	2725.62836534599	1061.39567523197	218.886102621199	1885.98670798461	1390.0895847009	146.315573392492	1945.89811497741	924.747832143149	207.203745636985	2026.11921520938	1358.59832010145	135	2598.62422348639	898.581871295162	150	2074.91257263443	1054.10484181392	155	1996.36629656998
834.681330997983	160.022377530006	1426.11740663257	1383.74557594742	266.771930966684	2050.75583152054	902.686258225723	197.326336849983	1621.96191133709	1450.99621233329	161.011749802608	2053.30637849268	1036.75385723149	186.828009925489	1952.09065520024	1193.68410739872	150	1853.2712991035	994.204227762696	149.434897482471	1949.75541845343	1236.88832247499	202.959820723185	2002.95438974756	827.037620262417	163.28747653407	1376.51997600212	1801.60865947446	218.184813108242	2725.69248980939	1061.36948230372	218.881540282327	1886.79655741753	1390.12929232735	146.359600214272	1946.13861071843	924.839894958498	207.140854403134	2025.36171659376	1358.93331719406	135	2597.03910341029	898.795239152719	150	2073.90691857186	1054.36299611604	155	1995.41352522748
834.621278416071	160.022377530006	1425.68912199933	1383.68400124686	266.770342245065	2050.52998950004	902.718231565638	197.280265311625	1621.95243052592	1450.56236618437	161.004650252251	2052.69214097478	1036.81645323746	186.764040860857	1951.37970377041	1193.67839915841	150	1852.35522326178	994.745213780696	149.459291636726	1950.30737631506	1236.79187584935	202.923747524246	2002.12897266037	826.714854588385	163.33151059676	1376.3694108363	1801.5900361405	218.214979589957	2726.02581769491	1061.43418347373	218.886102621199	1887.72185560632	1390.2281595214	146.40989136885	1946.57083707142	924.975630414514	207.09091362322	2024.77422499947	1359.33384247692	135	2595.74070879005	899.011880244029	150	2073.04165451947	1054.64152634887	155	1994.57511436507
834.569558490228	160.038183470358	1425.26231346147	1383.55541375507	266.758426226118	2050.13727231326	902.751710297044	197.241936614291	1621.95708007633	1450.08125801077	161.001327222897	2051.86621879904	1037.07004929975	186.70008426197	1951.01848954814	1193.80725440006	150	1851.53830856117	995.586981273793	149.466391187083	1951.35699751416	1236.8740030278	202.874340400738	2001.54161163519	826.460249252222	163.379596059593	1376.36813642093	1801.57433132352	218.232357096474	2726.48026504373	1061.53927247875	218.898917788843	1888.66437474674	1390.27742280248	146.45734948153	1947.05189237167	925.136148119092	207.053800476695	2024.37112000595	1359.74645148896	135	2594.71760235558	899.198961784229	150	2072.31254221289	1054.91871297674	155	1993.87867680751
834.531620815682	160.070480148294	1424.91218960884	1383.37399559709	266.73561138665	2049.68726212726	902.772890035119	197.212022224465	1621.99227201569	1449.54562839251	161.001327222897	2050.8882404017	1037.44860840198	186.644515778148	1950.98883193728	1193.99366478236	150	1850.79666682759	996.628316710124	149.45734948153	1952.80851823267	1237.06056155805	202.815715948506	2001.15848627815	826.255537436596	163.423834173925	1376.48717827106	1801.49159722078	218.232357096474	2726.95613884545	1061.64263888282	218.917596325812	1889.56139950775	1390.19485746728	146.494615513603	1947.49299727216	925.307736937025	207.028429474207	2024.18321283448	1360.1333300423	135	2593.999636716	899.336929204639	150	2071.7485759613	1055.1822634789	155	1993.381228321
834.523044895148	160.119607655062	1424.75391087117	1383.17484220894	266.704117682038	2049.34761928597	902.78241916727	197.191588749539	1622.11574803624	1448.98329772204	161.004650252251	2049.91133715964	1037.88334638548	186.605403766254	1951.25830335304	1194.17347611677	150	1850.13556914192	997.76254109011	149.439442918267	1954.55535129146	1237.28472856035	202.755357188539	2000.95340708408	826.091430614987	163.459098906893	1376.71965885224	1801.31415328318	218.214979589957	2727.41434169084	1061.71884202283	218.938843073884	1890.39491520249	1389.94236630491	146.516489611827	1947.86542360909	925.479330444668	207.013077025505	2024.23923454715	1360.47299058306	135	2593.63122566859	899.420089811569	150	2071.39241040152	1055.42746716742	155	1993.14465543116
834.567858096688	160.185067100016	1424.91986306662	1383.00474312362	266.669629729949	2049.31252427701	902.79416986738	197.183312162058	1622.41356583967	1448.44961576506	161.011749802608	2049.15616997699	1038.32098471164	186.588719357054	1951.79544222	1194.3156011697	150	1849.59716699818	998.897696523336	149.424102887418	1956.50237597483	1237.5038851892	202.702616735855	2000.91728511834	825.973296874779	163.48166731564	1377.07759333535	1801.0678161822	218.183485885345	2727.87019166517	1061.76832264664	218.95927654881	1891.18637083024	1389.54271421866	146.519050582022	1948.19597514324	925.647359064856	207.004650252251	2024.55943952815	1360.76384040198	135	2593.65615557861	899.456385247616	150	2071.28763829565	1055.65886465671	155	1993.2210669754
834.691168921399	160.26438861335	1425.5434063232	1382.91212232417	266.639865525898	2049.77021205588	902.831836339705	197.190932903077	1622.98818943694	1448.0168265569	161.023779221956	2048.87746259666	1038.7282933344	186.596972185825	1952.5849587453	1194.42331885292	150	1849.26935737264	999.968494797272	149.422104022049	1958.58068847484	1237.69873812265	202.66656069237	2001.06987629454	825.919656310835	163.490612845819	1377.58606099576	1800.82626702556	218.144887823202	2728.3905429315	1061.8171887195	218.976220778044	1891.99042474455	1389.07376159324	146.503428013463	1948.55980590241	925.814853880065	207.002654445794	2025.15266695571	1361.02571213658	135	2594.10319096697	899.468237215698	150	2071.47075308039	1055.89082238676	155	1993.64065088165
834.911313962732	160.352388991827	1426.72704621438	1382.93138098454	266.621454049873	2050.86425343028	902.918322944779	197.217089723434	1623.93340869421	1447.74553168059	161.04072345119	2049.30644125365	1039.09793290509	186.628644642094	1953.62622525965	1194.53113239789	150	1849.26467937296	1000.94180920823	149.440502942277	1960.74973729407	1237.88054765803	202.653745524726	2001.45178338463	825.955404629254	163.487644790788	1378.26709831813	1800.68812411881	218.107857852454	2729.06071049373	1061.9070414305	218.988250197392	1892.87004136961	1388.64944022596	146.474829623144	1949.05641579135	925.989050401368	207.004650252251	2026.00842324479	1361.29221226332	135	2594.97957110834	899.483262985992	150	2071.95819860051	1056.14114366838	155	1994.40530218255
835.235534900605	160.441747592821	1428.51111183494	1383.07698508882	266.620213061666	2052.65296772162	903.070815040825	197.263261730966	1625.30598928458	1447.67323651932	161.062484149013	2050.57982172396	1039.44223559746	186.678577693864	1954.92870394692	1194.68644289737	150	1849.69166177613	1001.8154996377	149.480949417978	1962.99738509108	1238.07556249885	202.66656069237	2002.11142518776	826.099893347167	163.476826184648	1379.13267776641	1800.74426295748	218.082229950902	2729.97241071034	1062.07844869232	218.995349747749	1893.88305682805	1388.38655987098	146.440770141163	1949.7917685458	926.178041228553	207.013077025505	2027.10537741574	1361.59876032883	135	2596.27823384496	899.529058101739	150	2072.75014320408	1056.42571023031	155	1995.49346344823
835.653317405684	160.523700834272	1430.85913765607	1383.33424067186	266.636897470866	2055.09240236458	903.292271055518	197.32819998526	1627.11021057458	1447.79661639012	161.088381149336	2052.70612911645	1039.78426986021	186.739196273865	1956.49431774139	1194.92949389319	150	1850.61213729898	1002.60949256402	149.539579432432	1965.32615086423	1238.31340799323	202.702616735854	2003.07979358254	826.360628430703	163.46401345074	1380.17566559963	1801.0502263019	218.077035524276	2731.19156741255	1062.35634421118	218.998672777103	1895.06071251403	1388.37228232963	146.411272998056	1950.8518955818	926.387304576047	207.029756697104	2028.40700890468	1361.97735434929	135	2597.97353837212	899.624857347714	150	2073.82457110901	1056.7559053312	155	1996.85985094509
836.139523778621	160.591247057975	1433.65954267857	1383.66295923064	266.670324865093	2058.04309217575	903.568699506033	197.409276436551	1629.29112440222	1448.07683619073	161.118809488912	2055.56545193034	1040.15056464741	186.802231838163	1958.29616616135	1195.28529998193	150	1852.00727051949	1003.35610769055	149.608450841204	1967.7316515682	1238.62013541929	202.755357188539	2004.34584337589	826.728072547966	163.45452131245	1381.36117733378	1801.60940234368	218.09863000576	2732.7257084197	1062.73997773943	219	1896.38848938026	1388.63673301142	146.394162552483	1952.26205579053	926.616033845337	207.057123506049	2029.86998684732	1362.44139030756	135	2600.03342103852	899.776271209951	150	2075.1424727178	1057.13069706034	155	1998.4487653023
836.661848545909	160.639508143979	1436.7452986961	1384.01143699548	266.715955398024	2061.29202677533	903.875666991366	197.50192706728	1631.74120456606	1448.45822979003	161.155403878512	2058.93833029743	1040.56276402205	186.860472819763	1960.27532559059	1195.7593804427	150	1853.78320665654	1004.08964005158	149.679104712785	1970.19582450926	1239.01013711162	202.815715948506	2005.85484166972	827.173164884534	163.452519943772	1382.63030757646	1802.36526555617	218.149364352166	2734.50952018248	1063.19832308076	219	1897.80795626852	1389.14387000262	146.393895491539	1953.96825696987	926.853876578409	207.098013173577	2031.43380672309	1362.97693911417	135	2602.39661259493	899.971185121138	150	2076.63603859206	1057.53417051162	155	2000.18603561483
837.190205826922	160.668476985386	1439.9188828474	1384.3313131112	266.768169922447	2064.58558463971	904.18555001245	197.599953310026	1634.31438713788	1448.8890419312	161.200689668575	2062.5523038749	1041.03240709528	186.90908637678	1962.34420377798	1196.34425285524	150	1855.79671920368	1004.83691000224	149.742715744182	1972.67897827976	1239.48812398592	202.874340400738	2007.51948692989	827.658070928861	163.458683560059	1383.91156224247	1803.23047777466	218.225790551206	2736.42324020124	1063.68469574139	219	1899.23233046557	1389.81476648283	146.409276436551	1955.8504341926	927.080210445139	207.152883822482	2033.03311547699	1363.54377115928	135	2604.97448762686	900.180434872683	150	2078.22023386587	1057.93265901665	155	2001.98312809456
837.703368943453	160.680854138147	1442.98802854603	1384.59068112929	266.821360807868	2067.67389924499	904.476921471492	197.696906459593	1636.84908321768	1449.33587924046	161.257284255818	2066.14171939035	1041.55831502856	186.946199523305	1964.4077682278	1197.02753748439	150	1857.90034804412	1005.60931914466	149.794660079175	1975.12641812756	1240.04787921203	202.923747524246	2009.24185798234	828.143839140047	163.472304759939	1385.13422276472	1804.10880387535	218.322222510112	2738.32422367161	1064.14667707205	219	1900.57194747993	1390.55263259203	146.436231561	1957.75878783916	927.26731024786	207.219362643322	2034.59056749057	1364.0807798729	135	2607.63171517398	900.364101014996	150	2079.78554688289	1058.27724181094	155	2003.72465804672
838.186831587094	160.681029761318	1445.79408169596	1384.77456123333	266.869568176577	2070.3503426822	904.733637497541	197.785959251402	1639.19394511885	1449.78243996409	161.326872762363	2069.4911949566	1042.12679409233	186.971570525793	1966.37817474628	1197.79689387866	150	1859.98573776903	1006.40130612166	149.832846318879	1977.47518297405	1240.67453830221	202.959820723185	2010.93711702963	828.595604077589	163.488850041775	1386.24909757877	1804.92012879316	218.429020338555	2740.1016082718	1064.54157329826	219	1901.76828475601	1391.27688720295	146.466398042715	1959.5720282651	927.38801437848	207.292987003669	2036.03937834629	1364.52712266752	135	2610.22496015749	900.482782787575	150	2081.22894277226	1058.51785557997	155	2005.29191779336
838.630698748774	160.675568273748	1448.217106296	1384.88258633757	266.907759153883	2072.46045707737	904.94659030137	197.859936152336	1641.21870959608	1450.22186087025	161.407949213654	2072.43645564267	1042.70975734805	186.986922974495	1968.20108121412	1198.63463938616	150	1862.0140851979	1007.18663528407	149.857411289131	1979.67037177645	1241.34109203928	202.982272722244	2012.5576582709	828.988019015955	163.505172483078	1387.23557249119	1805.61741877294	218.53545063688	2741.71659911518	1064.84338123618	219	1902.81384628391	1391.94241358564	146.49342268047	1961.24654004289	927.42256735775	207.366448276164	2037.32547090416	1364.84224426429	135	2612.62540773779	900.508576736945	150	2082.46265025575	1058.61480629226	155	2006.57739753851
