Light	Light	Light	Light	Light	Light	Light	Light	Light	Light	Light	Light	Light	Light	Light	Light	Light	Light	Light	Light	Light	Light	Light	Light	Light	Light	Light	Light	Light	Light	Light	Light	Light	Light	Light	Light	Light	Light	Light	Light	Light	Light	Light	Light	Light	Light	Light	Light
Optode1-730nm	Optode1-Ambient	Optode1-850nm	Optode2-730nm	Optode2-Ambient	Optode2-850nm	Optode3-730nm	Optode3-Ambient	Optode3-850nm	Optode4-730nm	Optode4-Ambient	Optode4-850nm	Optode5-730nm	Optode5-Ambient	Optode5-850nm	Optode6-730nm	Optode6-Ambient	Optode6-850nm	Optode7-730nm	Optode7-Ambient	Optode7-850nm	Optode8-730nm	Optode8-Ambient	Optode8-850nm	Optode9-730nm	Optode9-Ambient	Optode9-850nm	Optode10-730nm	Optode10-Ambient	Optode10-850nm	Optode11-730nm	Optode11-Ambient	Optode11-850nm	Optode12-730nm	Optode12-Ambient	Optode12-850nm	Optode13-730nm	Optode13-Ambient	Optode13-850nm	Optode14-730nm	Optode14-Ambient	Optode14-850nm	Optode15-730nm	Optode15-Ambient	Optode15-850nm	Optode16-730nm	Optode16-Ambient	Optode16-850nm
830.036951453642	152.679528953077	1410.87065285731	1339.11486144341	212.119949323001	1992.49883343128	834.571100684963	173.023779221956	1474.33286666672	1448.37189928302	151	2018.35359657758	998.149684213173	162.712515203935	1878.91755368297	1177.00435287709	140.082403674188	1778.99413784296	1040.45652412572	139.998672777103	2045.30047601033	1194.75855886989	171.8954651769	1906.21033390199	804.079429446882	153.314493571776	1312.15355594263	1745.18442183683	186.338106715335	2575.43896364595	989.674216847393	187.732702949082	1732.49768022168	1343.20218448733	140.883189376457	1822.08384142336	867.148627255585	176.280519569438	1892.72599762198	1327.37749871698	129.04072345119	2474.53530440679	882.106317027503	141	2015.5652362176	1034.56517431085	145.052473253798	1924.15031837339
829.406058492812	152.642960755922	1408.86063180144	1338.58364592293	212.088703020569	1991.00010554273	834.053692455874	173.011749802608	1472.39859578417	1448.03949462053	151	2017.31059267517	997.323730818692	162.714562979425	1876.62902781302	1175.96028839775	140.101082211157	1777.25457616082	1039.66224461886	139.995349747749	2043.20758620622	1193.66028222935	171.850461924548	1904.318635374	803.108214047034	153.287214676209	1310.32186567726	1743.60222189412	186.285799539934	2573.0962320572	989.031198777873	187.698407405777	1730.95121870645	1341.8880568068	140.87409096073	1820.66387109666	866.554500631509	176.266781201282	1889.93945969252	1325.94470271627	129.023779221956	2469.78097927765	881.240092869642	141	2011.41099653401	1033.4383307368	145.028429474207	1920.5471913875
828.593963272474	152.601257815247	1406.30556091761	1337.83911490637	212.036317680149	1989.07581231499	833.418833847188	173.003323029354	1470.04048966588	1447.5271119951	150.998672777103	2015.91725833454	996.34777709147	162.719706192065	1873.79766457385	1174.79135108467	140.1138973788	1775.07958722729	1038.70090421527	139.988250197392	2040.51165454584	1192.39159819001	171.798786836899	1901.91930855885	801.978347118583	153.260615151259	1307.91533409702	1741.70929678662	186.227527558715	2569.60584030318	988.282352535054	187.63520562514	1728.77277692769	1340.33488954659	140.857673146993	1818.32751309151	865.918212485878	176.256398176291	1886.79445060284	1324.33962885796	129.011749802608	2464.33377489257	880.305190412342	141	2006.72621686711	1032.24770398295	145.013077025505	1916.55266437287
827.643092583415	152.555994742861	1403.3467424278	1336.93089822963	211.959022557036	1986.84800573949	832.701150683203	172.998004193543	1467.3729948175	1446.86839062396	150.995349747749	2014.25221172428	995.2787863179	162.725600491435	1870.57029951515	1173.56623787922	140.118459717673	1772.56836572478	1037.62254592721	139.974893555147	2037.31629893584	1191.01410158457	171.743513910331	1899.08943476134	800.744789474513	153.237807552701	1305.05211749658	1739.5767476885	186.170235136553	2565.08149321809	987.463847317332	187.553340297067	1726.07099635326	1338.58779965619	140.83948960824	1815.11053828698	865.259476503238	176.24419481246	1883.40874085022	1322.60213879448	129.004650252251	2458.32269673281	879.325699028438	141	2001.6565679082	1031.03661560989	145.004650252251	1912.30294536144
826.601984872406	152.509036987033	1400.14326679189	1335.91820718969	211.855285900085	1984.45611392447	831.938694806698	172.992900449642	1464.53302423572	1446.08493701641	150.988250197392	2012.36509756541	994.173782451864	162.725771514948	1867.09999467309	1172.334597047	140.1138973788	1769.8091641092	1036.48730665268	139.954626296559	2033.76805155054	1189.58218250224	171.685412952625	1895.91239716009	799.469006885537	153.221123143501	1301.88741949336	1737.29683232951	186.119259921649	2559.74138948892	986.619182610963	187.464461449741	1723.01266805944	1336.70662336712	140.823618472186	1811.14382606615	864.596327729844	176.225519403977	1879.9294440453	1320.77042534498	129.001327222897	2451.92431548791	878.324903517221	141	1996.3898026437	1029.84094637862	145.001327222897	1907.96399561821
825.524004771612	152.464007888518	1396.84905870436	1334.86344556548	211.729633911503	1982.02662466537	831.170900581897	172.987970580652	1461.65984623098	1445.19469794591	150.976220778044	2010.27300284129	993.086815382606	162.714374183353	1863.5263940235	1171.12814726752	140.101082211157	1766.86957055293	1035.36097760208	139.927093271276	2030.04146297217	1188.14089512497	171.624256026508	1892.47012437677	798.209749023103	153.211744336039	1298.58335604011	1734.96926872529	186.077556980975	2553.85779321468	985.794426204573	187.3790841583	1719.78798646321	1334.75777713246	140.811863862404	1806.6232909821	863.944632104026	176.197628275886	1876.51302219116	1318.88592738331	129	2445.35287125414	877.325886151208	141	1991.13209890867	1028.69009728421	145	1903.71238764883
824.461166182451	152.425412954861	1393.6096995398	1333.82562550779	211.588203507418	1979.67659710475	830.435521125445	172.983055770766	1458.8931751525	1444.21562101793	150.95927654881	2007.99395759334	992.067166669352	162.685939971545	1859.97655447292	1169.97385689603	140.082403674188	1763.81325453189	1034.32030100005	139.893817103856	2026.33632254122	1186.73393324366	171.559229858837	1888.85628297688	797.01433788355	153.212452026979	1295.29125613123	1732.68907342581	186.046700926337	2547.72872451795	985.031252273438	187.305626014291	1716.58851826715	1332.8092833581	140.804764312047	1801.79178137088	863.320207736956	176.162239137273	1873.30998533136	1316.99022972719	129	2438.84854657661	876.350503046213	141	1986.08697726423	1027.60283337504	145	1899.71884815029
823.462344580705	152.394558578911	1390.55784392325	1332.85853918458	211.44209736406	1977.50795726461	829.766920870807	172.979566525074	1456.36031102285	1443.17402841689	150.938843073884	2005.56935658432	991.159127632691	162.639375868707	1856.56508698239	1168.90321978034	140.061156926116	1760.71520889121	1033.4448978467	139.858194337653	2022.86039209288	1185.40560996425	171.489641352292	1885.18054842452	795.916270654731	153.221930854425	1292.1340829433	1730.53914895553	186.025106444853	2541.63336694431	984.362614633934	187.247037299278	1713.57771410781	1330.92512647545	140.801166473127	1796.89704382974	862.736945691761	176.123127125378	1870.4439622585	1315.1277359359	129	2432.64844771178	875.417296569697	141	1981.42850945245	1026.59352460854	145	1896.1275264495
822.569692051277	152.373084324615	1387.81580660261	1332.00641161692	211.302549366032	1975.61660342454	829.191820650912	172.978753251928	1454.17453688235	1442.09858933796	150.917596325812	2003.07865581766	990.398566842593	162.576581172908	1853.40224240134	1167.95508030637	140.04072345119	1757.67771097313	1032.80777073078	139.824945695083	2019.81145834207	1184.20337902637	171.416996481429	1881.5772295996	794.933441389883	153.239796118248	1289.19724586309	1728.57983048599	186.011749802608	2535.79601812829	983.807676974166	187.203745636985	1710.86862335968	1329.15761932282	140.800093379947	1792.15453147474	862.207736061192	176.084936148072	1867.99729670648	1313.34510816737	129	2426.95516759549	874.544100961845	141	1977.28049287672	1025.67356089583	145	1893.04076066076
821.811889768381	152.359607455182	1385.48849753858	1331.30013702877	211.181033679949	1974.0882190349	828.727308677562	172.981321463032	1452.42253793807	1441.01099273192	150.898917788843	2000.62926722702	989.809796001101	162.503933173559	1850.59172560551	1167.16854987545	140.022451999059	1754.82196578947	1032.45766068536	139.797809385242	2017.34170390319	1183.17041301072	171.343540016108	1878.19365284139	794.071888621308	153.263458171929	1286.53031732847	1726.85016540273	186.004650252251	2530.3691942895	983.368736240013	187.172348107746	1708.51728624247	1327.54333865201	140.801166473127	1787.71854313387	861.736319054082	176.052473253798	1866.00078950417	1311.68052469162	129	2421.91053710782	873.741324639794	141	1973.70641789034	1024.84952310399	145	1890.51017388401
821.205639564413	152.352506226136	1383.65158304552	1330.75703955738	211.086089647683	1972.98471568158	828.377971572901	172.987184832356	1451.15153528734	1439.92455173038	150.8861026212	1998.32152184732	989.392383946257	162.428388250802	1848.20771947846	1166.56323003172	140.007099550357	1752.25883601808	1032.39335061	139.780370157792	2015.50366580393	1182.32946438767	171.274119891825	1875.15753518789	793.325207356466	153.288694854226	1284.14632357227	1725.3582747195	186.001327222897	2525.42277436913	983.026307895561	187.148216414777	1706.51736024685	1326.09299244174	140.804764312047	1783.66207240821	861.313760444339	176.028429474207	1864.41506727301	1310.15731079562	129	2417.55819174888	873.008669286231	141	1970.69023795749	1024.12247769546	145	1888.52201077831
820.750290707535	152.34872963556	1382.33270869774	1330.37706665213	211.021871190935	1972.32541195844	828.13601818402	172.996764884024	1450.35354615784	1438.83190996066	150.881540282327	1996.20770546676	989.11823289607	162.356632159241	1846.2836458209	1166.13068488863	139.991573226746	1750.06761717767	1032.54834739529	139.771943384538	2014.22388652148	1181.67655969027	171.214040748598	1872.55787160618	792.681499796954	153.312451288934	1282.03199644685	1724.08970736488	186	2520.9569268307	982.741814810035	187.126974404306	1704.81215880202	1324.79424144994	140.810536639507	1779.9800461249	860.91361836825	176.013077025505	1863.14639998693	1308.77661654684	129	2413.84859381438	872.33290464382	141	1968.15600266925	1023.48526329847	145	1887.01599123535
820.429350617237	152.346775132084	1381.50110389648	1330.13808820412	210.988766047028	1972.06922832384	827.978271698938	173.009212591123	1449.96294212975	1437.70153412816	150.8861026212	1994.25776345209	988.930957972596	162.29520343458	1844.7914605971	1165.82286054776	139.97289774869	1748.26058388486	1032.79025070132	139.770707133932	2013.28980779285	1181.17404879463	171.167710273349	1870.41616697432	792.125934316166	153.330375077225	1280.15713860437	1723.01001069084	186	2516.93258121303	982.460549157896	187.105732463407	1703.31823059351	1323.61537148431	140.818968219936	1776.61676401461	860.494809299634	176.004650252251	1862.05935594233	1307.5184225429	129	2410.65498806972	871.691605875282	141	1965.99001267909	1022.92531275363	145	1885.89984406428
820.214019259543	152.345989314215	1381.06425096482	1329.99522436049	210.981671234271	1972.10473976958	827.871858869025	173.024564970252	1449.86115435191	1436.48101563167	150.898917788843	1992.34697714343	988.750424427402	162.248364522175	1843.63523211737	1165.55798889862	139.947526746202	1746.77525336388	1032.93497762956	139.772472441285	2012.37130952886	1180.75493070125	171.13740940187	1868.68130976738	791.648162700565	153.339433938232	1278.48383575722	1722.07966135493	186	2513.29750976103	982.126400145007	187.083730897085	1701.94502732077	1322.52285412818	140.829067028529	1773.49731427684	860.012822964137	176.001327222897	1861.00805755648	1306.35478391374	129	2407.81660180485	871.062198591385	141	1964.07685423721	1022.43096067278	145	1885.07786995166
820.064777334138	152.346616664367	1380.89012080125	1329.88301050595	210.993162307504	1972.27316156386	827.775173511138	173.042457758924	1449.90438546298	1435.10039878925	150.917596325812	1990.29132663958	988.491438292949	162.220145691844	1842.67580011091	1165.2415601407	139.915063851928	1745.49697708241	1032.78767318346	139.771930966684	2011.10694153377	1180.34348926943	171.1239101739	1867.25486003375	791.244962661324	153.33729344219	1276.9860559099	1721.26883229997	186	2510.03358706952	981.694185875091	187.061156926116	1700.63495456357	1321.49662500911	140.83721695439	1770.58203555285	859.434851002526	176	1859.87724797587	1305.26649191472	129	2405.19150616058	870.43498002244	141	1962.34521484325	1022.00020372262	145	1884.47806606562
819.938215674939	152.349444695505	1380.83769422504	1329.71996461463	211.014142390541	1972.40274217091	827.64811889155	173.061970199262	1449.96341770579	1433.49079806737	150.938843073884	1987.90793125016	988.08651554043	162.213854607458	1841.77830033662	1164.79044936732	139.876872874622	1744.30413271762	1032.19672848251	139.76471250333	2009.22014444238	1179.87411389956	171.12478696406	1866.03349272005	790.926342800355	153.32399051724	1275.66703823747	1720.57576222571	186.001327222897	2507.1959105149	981.150692901201	187.042050674087	1699.39364271757	1320.55450862201	140.841794282795	1767.91487932265	858.759687265465	176	1858.63037631604	1304.26119953116	129	2402.72007859813	869.827641987879	141	1960.81113571391	1021.64712983422	145	1884.07711192626
819.797930231362	152.354143929786	1380.79342848825	1329.42712861567	211.036056043485	1972.34650887923	827.461739053995	173.081590401043	1449.9573718683	1431.61129555208	150.95927654881	1985.0908930508	987.508646435112	162.230446365678	1840.85659118726	1164.16554128044	139.837760862727	1743.12015604483	1031.10418635235	139.748454079144	2006.61478129809	1179.31879124036	171.137602131704	1864.95365396611	790.712755412584	153.299915738029	1274.56867124065	1720.0338538624	186.005977475148	2504.92774924712	980.523367240809	187.029756697104	1698.30283412909	1319.75659046395	140.840039344837	1765.65069703441	858.023984102704	176.001327222897	1857.32562630013	1303.38445786195	129	2400.4604540385	869.287021607576	141	1959.58623791256	1021.4022006063	145	1883.90337219729
819.626265228889	152.360820572256	1380.71122036293	1328.95261734688	211.052740452684	1972.03552222288	827.213660200763	173.099347903422	1449.88313546033	1429.48586576425	150.976220778044	1981.8966062997	986.788303907284	162.270361281324	1839.92088343197	1163.40259449829	139.803698947011	1741.97044896587	1029.58254412817	139.722796219006	2003.44414225295	1178.71024854728	171.161293440282	1864.03502023016	790.632995676851	153.267452843755	1273.78053261628	1719.71281421316	186.017727277756	2503.46868728672	979.882723073143	187.028149857467	1697.52432307737	1319.20558577231	140.830005731945	1764.05979903934	857.30461924773	176.004650252251	1856.12097639994	1302.71888664798	129	2398.60351717725	868.885740552617	141	1958.86839523745	1021.3047014161	145	1884.03096808489
819.432653621617	152.367863412439	1380.62527858098	1328.28790846261	211.060358759967	1971.50211459708	826.929411749294	173.113111630505	1449.81874882454	1427.22121852001	150.988250197392	1978.5696645878	986.015955797104	162.330195791717	1839.09820273921	1162.61557229165	139.78045807117	1741.01322253557	1027.83242684631	139.690848953171	2000.11217851033	1178.14168796151	171.196127329702	1863.40034494854	790.718231538036	153.229292866068	1273.42452966577	1719.70669874039	186.041506499712	2503.10389981021	979.333646199505	187.041506499712	1697.26450619012	1319.03159038919	140.812820634213	1763.47839333372	856.702452401646	176.011749802608	1855.23911407068	1302.36847357022	129	2397.44281774662	868.706493521033	141	1958.89405043853	1021.39328419936	145	1884.55662819031
819.25529905597	152.372398226462	1380.64259933848	1327.4795501398	211.058624452232	1970.8768708623	826.663934763687	173.120996929158	1449.89869400228	1425.00672401043	150.995349747749	1975.51676000454	985.325393623111	162.405953407198	1838.60169265417	1161.97955747784	139.772205242399	1740.51282878223	1026.14984892059	139.658575062485	1997.18825502528	1177.75216564922	171.244469088175	1863.24829984174	790.994394103023	153.189458553319	1273.62199532789	1720.11341095738	186.082229950902	2504.08954769893	978.990986374387	187.07180737119	1697.71448027118	1319.36485156514	140.789416670519	1764.2272131304	856.320381962127	176.025106444853	1854.91166520095	1302.43630186432	129	2397.30980345086	868.820385880758	141	1959.87317651764	1021.69271312721	145	1885.57084282543
819.152489347869	152.373211499608	1380.90865523884	1326.62363185268	211.049407123508	1970.35958069123	826.48633968868	173.121782747027	1450.27198438832	1423.08705805272	150.998672777103	1973.21717885368	984.861603096177	162.490177264672	1838.6785379843	1161.68788868381	139.78045807117	1740.78239496195	1024.85674259106	139.632247218615	1995.28013082863	1177.68947359502	171.308194225395	1863.80515821105	791.471698445263	153.152433389745	1274.46207651143	1721.00359436503	186.143386877018	2506.58194583263	978.952572674523	187.119607655062	1698.99672086998	1320.30040943127	140.763607583574	1766.52545927594	856.237429355183	176.045373703441	1855.31152423433	1302.99567780277	129	2398.48576531809	869.265604837615	141	1961.91824589285	1022.20380131364	145	1887.122233831
819.187398302695	152.370924943071	1381.54520070853	1325.84344774693	211.036073198939	1970.14851213382	826.459427581865	173.116551824594	1451.03869414693	1421.71284868538	151	1972.0866645215	984.743639817612	162.574846865173	1839.529911638	1161.89343289349	139.803698947011	1742.08184491135	1024.22160273033	139.618885838769	1994.87661740547	1178.06358478467	171.388029688479	1865.24433917417	792.138687011389	153.1239101739	1275.95695891445	1722.39349492928	186.225790551206	2510.55007822623	979.271832149579	187.185067100016	1701.10321738158	1321.86280333025	140.739646706602	1770.39538689633	856.486540592307	176.072906728724	1856.50195025787	1304.06607712392	129	2401.1205669741	870.032608349977	141	1964.99603005417	1022.89882373152	145	1889.19438536411
819.413810493258	152.366256572802	1382.59652447398	1325.26807048734	211.022451999059	1970.37486240264	826.626578829249	173.105732463407	1452.20410035532	1421.09602342979	151	1972.3534245313	985.030600502046	162.651532756153	1841.22463617214	1162.65946820589	139.837760862727	1744.50862670999	1024.39395480992	139.62278127277	1996.20864630504	1178.90698968924	171.480166369456	1867.6022201393	792.952618222046	153.109762976186	1278.01301736946	1724.20931750588	186.326872762363	2515.72242335815	979.934681273147	187.265715836247	1703.86537606265	1323.9736506416	140.72253626103	1775.60304770916	857.041212691962	176.106182896145	1858.40072884322	1305.59258415538	129	2405.15478370075	871.055853584313	141	1968.89966199329	1023.71508537518	145	1891.68326105218
819.857440492135	152.364683743806	1383.99835591068	1324.99568263301	211.011749802608	1971.05357080399	826.994507767657	173.095480699693	1453.6632236467	1421.35932155192	151.001327222897	1973.99568988882	985.70153945485	162.711725299781	1843.66344252062	1163.93276520671	139.875545651725	1747.93954197763	1025.3636098462	139.643188555251	1999.18442872389	1180.15510370865	171.577031605645	1870.73813555579	793.840611373937	153.114526628837	1280.42290121013	1726.28774780008	186.439442918267	2521.5892357371	980.858568002838	187.357039244078	1706.96277974169	1326.44932313214	140.71673293395	1781.65635295984	857.816005313023	176.141805662347	1860.78566482655	1307.44105110574	129	2410.2969296949	872.21910078546	141	1973.26615993531	1024.56182999098	145	1894.39856170301
820.507272761481	152.369988801485	1385.57488166688	1325.07021990024	211.004650252251	1972.06227832066	827.530171510973	173.089586400323	1455.20631337152	1422.50789781074	151.004650252251	1976.73385435485	986.659590161926	162.750430226838	1846.56868014603	1165.55334121661	139.910413599677	1752.01967555648	1026.96985708721	139.678056503203	2003.39599513172	1181.65430391842	171.667149762489	1874.32879683763	794.708418649061	153.140063847664	1282.8884423928	1728.39261108852	186.553252383689	2527.46097706497	981.907232020528	187.453497395429	1709.97019798335	1329.02250292224	140.723863483927	1787.86158842164	858.684357413838	176.175054304917	1863.33235689141	1309.41637994769	129	2416.04536183463	873.377523945428	141	1977.63087716845	1025.33203577703	145	1897.08384401167
821.314322825371	152.386274750521	1387.07844922017	1325.46785393473	211	1973.17237870809	828.164944155468	173.093196704988	1456.56990759045	1424.41763410599	151.011749802608	1980.10265607328	987.750164592204	162.764214584144	1849.53385202612	1167.28639743302	139.935776943594	1756.21973364302	1028.93741608372	139.720797353637	2008.20241475085	1183.19062345106	171.737353201333	1877.91783108465	795.449974082842	153.183739877119	1285.0573489596	1730.24576541533	186.655399959881	2532.56180893198	982.91597449186	187.546152833331	1712.42352190131	1331.38155788172	140.744296958853	1793.42709508244	859.501082769254	176.200863391861	1865.66121254005	1311.28758529543	129	2421.73445731344	874.38012763618	141	1981.48786631901	1025.91818155366	145	1899.43563670442
822.190820249359	152.415569954673	1388.24514431556	1326.09443316313	210.994022524852	1974.10486698635	828.802693136938	173.108715370028	1457.49336471083	1426.84023323584	151.023779221956	1983.55833400588	988.796356517028	162.753682498268	1852.10781374356	1168.8790776557	139.94646408094	1759.95184826971	1030.94419034614	139.764305418492	2012.87185284462	1184.53929625009	171.775710394977	1881.01132027532	795.969190975669	153.240609391394	1286.58956060046	1731.59170471049	186.731375726185	2536.17424356576	983.730971471534	187.625993034017	1713.9124776171	1333.23668209066	140.774030163286	1797.61045453374	860.135874365285	176.214979589957	1867.41810158631	1312.82990444625	129	2426.66176467253	875.100203113695	141	1984.39290655962	1026.23244766225	145	1901.16504443903
823.028028427432	152.455755059747	1388.84847634886	1326.80502424922	210.982272722244	1974.59079840769	829.33928293489	173.134876927986	1457.76985960991	1429.44458179996	151.04072345119	1986.57717735899	989.632161539071	162.722958601437	1853.87854590249	1170.10742054307	139.940222048158	1762.68357652626	1032.68664528115	139.802638923001	2016.72018588141	1185.50503509039	171.77438317208	1883.1654427077	796.192194568597	153.301242960926	1287.20741525694	1732.23786197652	186.76973291983	2537.75218046053	984.234587684717	187.684265015236	1714.14629030954	1334.36822728964	140.808545640224	1799.83888628818	860.490536317701	176.214979589957	1868.3183814238	1313.855572126	129	2430.17628043183	875.452342240734	141	1986.01552642469	1026.21808953109	145	1902.02690016507
823.714627675949	152.501237494357	1388.7460356886	1327.43501173031	210.958493500288	1974.4324231368	829.680291484519	173.166889389524	1457.28751758984	1431.86731260788	151.061156926116	1988.7436070651	990.133023616423	162.676379509067	1854.55094239808	1170.81185152005	139.916465543877	1764.04022541352	1033.93399626153	139.83098522143	2019.23438744913	1185.95550025493	171.732702949082	1884.07087360826	796.078760625669	153.355484221852	1286.75252948806	1732.09474708559	186.762633369472	2537.03456181935	984.367018959692	187.714024412114	1713.01334874824	1334.66764011908	140.841794282795	1799.82870766757	860.519980547353	176.200863391861	1868.2003400693	1314.25198051567	129	2431.8044550876	875.409400398472	141	1986.20065309871	1025.86476672861	145	1901.87321150391
824.156851259538	152.542829803978	1387.88544757612	1327.83677598667	210.917770049098	1973.52113380983	829.760839889517	173.197628275886	1456.03153013234	1433.7789380885	151.082403674188	1989.7802454457	990.233186982931	162.619059562056	1853.98571734469	1170.91927462321	139.8760898261	1763.85483937477	1034.56025106121	139.847116177518	2020.13169743978	1185.83951942862	171.655399959881	1883.59004609079	795.62831629136	153.394596233746	1285.20429687077	1731.18791480086	186.707596504229	2534.0735368599	984.131316589763	187.71145620101	1710.58832463545	1334.14672256171	140.867383436106	1797.61389934086	860.228489204754	176.175054304917	1867.0376463164	1313.98853991424	129	2431.32599798977	874.996715616179	141	1984.97727386614	1025.20223709755	145	1900.67595354034
824.298473548286	152.571153384731	1386.30952146499	1327.9096540936	210.856613122982	1971.85532011326	829.556570425935	173.21954192883	1454.08244462585	1434.94581373484	151.101082211157	1989.57192487259	989.930403929032	162.554667519964	1852.20167550188	1170.43753043991	139.822665313089	1762.1659579118	1034.54732336535	139.851638961671	2019.36690790866	1185.18280717509	171.553252383689	1881.75583860573	794.872320784634	153.412607865843	1282.67701090444	1729.63294391062	186.610026256441	2529.2088114426	983.579791069334	187.676646707953	1707.10962148582	1332.91704310169	140.881719567835	1793.51908693415	859.663068626392	176.141805662347	1864.92927013879	1313.11334540235	129	2428.79507745531	874.280800965551	141	1982.53526477533	1024.29430598233	145	1898.52792392585
824.130434391082	152.579497255366	1384.13739882964	1327.61808899171	210.774209448794	1969.52830922784	829.087897899078	173.227794757601	1451.59235229631	1435.26463757281	151.113897378801	1988.15771104766	989.278079562113	162.485257765077	1849.36625419136	1169.44788149324	139.75911579904	1759.1978795187	1033.97270942451	139.845923344385	2017.11683284696	1184.07681628912	171.439442918267	1878.758113673	793.868736355829	153.409005289322	1279.39693616156	1727.61165780376	186.480345654965	2522.99515316742	982.799599796629	187.613611143656	1702.93349482058	1331.1612574496	140.881719567835	1788.0832658702	858.899010951026	176.106182896144	1862.07168591206	1311.74052324233	129	2424.51742708703	873.354526870589	141	1979.17778233053	1023.22571798606	145	1895.627597076
823.685579770195	152.563626119313	1381.53861767973	1326.98955577205	210.673127237637	1966.70023784326	828.409108175776	173.21954192883	1448.75563418268	1434.76184000172	151.118459717673	1985.69349326159	988.365646358599	162.412861857617	1845.74879751683	1168.07304202969	139.692605978582	1755.29158004953	1032.97677783594	139.834839355989	2013.71684707964	1182.65019314469	171.326872762363	1874.89244023108	792.693435640993	153.387755412764	1275.66114085458	1725.33312938923	186.331932799225	2516.09753706681	981.890776977198	187.529561075111	1698.46975667761	1329.0933852884	140.867383436106	1781.94753117575	858.024659364106	176.071579505827	1858.72347003766	1310.02533032159	129	2418.98634903285	872.319751126599	141	1975.27051660999	1022.090427964	145	1892.24708134287
823.03359989474	152.52667132304	1378.70648273042	1326.1045137243	210.559229858836	1963.57239336197	827.59994955905	173.196301052989	1445.7810004737	1433.57940505155	151.113897378801	1982.41769302925	987.301708070102	162.340476806789	1841.67448147508	1166.45513615962	139.62971000713	1750.84164452673	1031.73018296847	139.823618472186	2009.59375570848	1181.0445812516	171.225790551206	1870.51130549707	791.429623726413	153.3569513307	1271.78936694627	1722.99886035387	186.180416847766	2509.1803742957	980.947853494202	187.433582677428	1694.11549717514	1326.92386961808	140.841794282795	1775.74549927251	857.127222083595	176.04072345119	1855.15517913807	1308.13931306513	129	2412.77478061168	871.272726738979	141	1971.17265212832	1020.9768702832	145	1888.67814037997
822.26529777947	152.475498961751	1375.83822068889	1325.08070927824	210.440770141163	1960.3580370412	826.749344752139	173.162239137273	1442.86747645045	1431.93797111374	151.101082211157	1978.61717360047	986.192436826143	162.271431453533	1837.47358652871	1164.7332838268	139.577755302742	1746.23008149627	1030.4007953744	139.816514114655	2005.19384233279	1179.39389846842	171.143386877018	1865.96721764282	790.15908618967	153.325306399281	1268.08763620293	1720.77502784479	186.038986443681	2502.83033130704	980.045331130556	187.335037677756	1690.21254293831	1324.82880726648	140.808545640224	1770.0229923881	856.284391437101	176.013356642245	1851.62973604095	1306.25338734005	129	2406.45946864359	870.297035960318	141	1967.20925383744	1019.96305478218	145	1885.20157174854
821.475436579453	152.41900944334	1373.11353359659	1324.04414191465	210.326872762363	1957.25447547191	825.941498250412	173.123127125378	1440.18368692853	1430.08805180327	151.082403674188	1974.58851438104	985.130929179933	162.210845187342	1833.4456149183	1163.02757343178	139.543433566991	1741.77664410436	1029.1329012595	139.816514114655	2000.92780022322	1177.80909708919	171.082229950902	1861.57114180111	788.960559068334	153.30097576204	1264.81489580754	1718.78615197839	185.9187442632	2497.48938086837	979.238289868248	187.243141865278	1687.01100597952	1322.93959081245	140.774030163286	1765.17637942118	855.558047824684	175.987970580652	1848.36947838264	1304.51416302595	129	2400.52845173625	869.457315384766	141	1963.63255238332	1019.10805873029	145	1882.03877277979
820.752091383681	152.367762429892	1370.68476746273	1323.11263398367	210.227117774103	1954.42567590929	825.24702080977	173.084936148072	1437.86246856855	1428.27370253548	151.061156926116	1970.61873568064	984.192773816296	162.16463362509	1829.83404254777	1161.43893123946	139.531431672493	1737.71864668535	1028.03852923683	139.824945695083	1997.13094348957	1176.37670108222	171.041506499712	1857.56498640394	787.900612503626	153.289065255689	1262.15761161489	1717.10667759489	185.826526909755	2493.41153413486	978.55839019985	187.165960847987	1684.64801199218	1321.33585424774	140.744296958853	1761.41985967334	854.988495647795	175.963926801061	1845.55243163	1303.03230717849	129	2395.34486195909	868.796867564732	141	1960.62135386958	1018.44558726943	145	1879.33939208245
820.163974168914	152.329788706879	1368.67913024353	1322.37624099381	210.148037129269	1952.00155196395	824.71778147153	173.052473253798	1436.00356400761	1426.69811044221	151.04072345119	1966.97954793507	983.432022213491	162.137614549557	1826.82254636315	1160.04692682476	139.543433566991	1734.21485474216	1027.19670797811	139.840816831137	1994.05106300975	1175.15975883852	171.017727277756	1854.118400164	787.035376455993	153.292126786321	1260.23246583669	1715.77651782248	185.765369983638	2490.68671356005	978.026240164214	187.107313678079	1683.16388081556	1320.05741005948	140.723863483927	1758.81407255325	854.599058037811	175.940170296781	1843.29811156112	1301.87719639914	129	2391.11553347861	868.339596386163	141	1958.27231939806	1017.98419285753	145	1877.16341715662
819.752760838801	152.311603489438	1367.1929540966	1321.88329564839	210.095306976407	1950.07370943052	824.380998534	173.028429474207	1434.67548308477	1425.49471078595	151.023779221956	1963.90664934902	982.887856904673	162.13135745767	1824.54039154814	1158.91622698261	139.576428079845	1731.36504994621	1026.65885647135	139.862323399243	1991.85410542567	1174.20318766705	171.005977475148	1851.33817133927	786.40832529785	153.310286566364	1259.08083288638	1714.81514194844	185.734460211706	2489.25553416212	977.656799940296	187.071527754451	1682.51076345653	1319.12189768283	140.71673293395	1757.29160362252	854.395431313824	175.917596325812	1841.67153689483	1301.0759321181	129	2387.91221952873	868.090668882581	141	1956.61586077234	1017.71019208449	145	1875.49974123589
819.534279277706	152.314060028455	1366.2904513611	1321.64220805965	210.069935973919	1948.69697112074	824.244374434891	173.013077025505	1433.91830414953	1424.72393894607	151.011749802608	1961.5811129286	982.583454071819	162.146362172959	1823.07031883284	1158.09132911053	139.625059754879	1729.22979902355	1026.45035142397	139.887167986235	1990.62978738181	1173.5341272168	171.001327222897	1849.28378564138	786.051112330485	153.343016521582	1258.67630186698	1714.23537238735	185.729840959074	2488.9475752125	977.463577969302	187.05818617131	1682.57328160116	1318.53693646446	140.723863483927	1756.69875483326	854.366930966867	175.90024501174	1840.69064852295	1300.61814004341	129	2385.70636604728	868.037343745339	141	1955.63539781973	1017.59137197085	145	1874.29114370858
819.502890783799	152.337300904296	1366.00113455585	1321.63057301253	210.070200531554	1947.89159209858	824.300275928749	173.004650252251	1433.74676990689	1424.38083743315	151.004650252251	1960.10412771137	982.524581268504	162.178661909808	1822.44320918735	1157.59089485554	139.680856175974	1727.83026954161	1026.57104302045	139.912946073561	1990.39312760615	1173.15934014321	171	1847.96640213073	785.978950050615	153.388820998997	1258.94453559329	1714.04258303033	185.74562418175	2489.54763208929	977.457157672097	187.0668775022	1683.20670062392	1318.30321070851	140.744296958853	1756.85623116932	854.49357070693	175.89075287345	1840.32551134509	1300.4692550552	129	2384.39830652857	868.1546829809	141	1955.27535851403	1017.58823816769	145	1873.45416034627
819.637233942331	152.37583188687	1366.31047645133	1321.80334788338	210.09091362322	1947.63684726019	824.529202366591	173.001327222897	1434.14315744686	1424.40983949162	151.001327222897	1959.48121639374	982.700145827206	162.221755231254	1822.63700125309	1157.39679384343	139.735336577084	1727.13890519742	1026.99257000283	139.937515850987	1991.09100712289	1173.05870033521	171	1847.34819178935	786.18858099068	153.444093170517	1259.77270092278	1714.23035041718	185.775357386182	2490.82073947845	977.641360296076	187.094236652574	1684.25328272817	1318.40933229833	140.774030163286	1757.57973985443	854.74918847595	175.893290084935	1840.52195312677	1300.58172694018	129	2383.87272658002	868.41162593499	141	1955.47082777572	1017.66248552048	145	1872.91264600595
819.905465266334	152.42155325808	1367.1574377033	1322.10438152426	210.124454348275	1947.86803018332	824.903616586738	173	1435.0542301031	1424.72295097198	151	1959.61743697071	983.084175916936	162.267997793125	1823.5653915747	1157.45932706933	139.780614639002	1727.06054026062	1027.66532934865	139.95927654881	1992.60076198127	1173.18877964687	171	1847.33100430995	786.656087802222	153.505708395457	1261.02372137665	1714.76434033624	185.813195892475	2492.53008809074	978.007046584989	187.136204150883	1685.56140253347	1318.81856074575	140.807218417328	1758.69107637406	855.104883538142	175.911209066053	1841.20568271445	1300.90326406605	129.001327222897	2384.00758719966	868.773036614468	141	1956.14872220794	1017.78090829722	145	1872.6029184444
820.268571891875	152.4673775322	1368.4453974592	1322.47124472247	210.16356636017	1948.48865105961	825.38685232404	173	1436.40000293797	1425.21734099844	151	1960.34796153819	983.636083701077	162.310460289651	1825.08882666497	1157.70037139673	139.81160987063	1727.43637931718	1028.52279395341	139.976220778044	1994.74797444964	1173.4865846399	171	1847.76420762358	787.332184868047	153.566603463712	1262.55546735008	1715.56937251422	185.853544085403	2494.45996108665	978.526267056389	187.187345582126	1687.00600025535	1319.4572828352	140.837144030544	1760.02593442813	855.5313321819	175.944291492284	1842.30082811311	1301.37663096628	129.004650252251	2384.69305310382	869.203394054501	141	1957.23996089958	1017.9169432487	145	1872.48312719407
820.68034772241	152.504996104859	1370.04823261983	1322.83626725819	210.20095130524	1949.37463878063	825.931766175169	173	1438.07050533338	1425.78125258118	150.998672777103	1961.46747704218	984.308273841666	162.344491275321	1827.02715925505	1158.02959344126	139.825635096435	1728.06342722662	1029.49027546271	139.988250197392	1997.32424344313	1173.87911652445	171	1848.46382430494	788.15055876594	153.620930959328	1264.23184498808	1716.53855609367	185.892489880959	2496.41718856277	979.155283487243	187.243001979326	1688.49058085518	1320.22236754768	140.856960856394	1761.42875143498	856.000712290598	175.990503054536	1843.72698029703	1301.94489166526	129.013077025505	2385.80972291236	869.671187120269	141	1958.66893299058	1018.04955336011	145	1872.51627635028
821.093490423635	152.529473161733	1371.82323754173	1323.13391068609	210.231291731438	1950.38693737505	826.485039582431	173	1439.93424841138	1426.30726343737	150.995349747749	1962.75961036443	985.046952869654	162.368561247357	1829.17499308453	1158.36113344098	139.823787388299	1728.71946714008	1030.49260224218	139.995349747749	2000.10252858761	1174.29648661786	171	1849.23514113103	789.03030448419	153.661377435029	1265.9305109801	1717.53780558332	185.927093271276	2498.24160802612	979.832579653845	187.298426132702	1689.94588846097	1320.98928374919	140.86259059813	1762.76049337433	856.485168204191	176.046353192925	1845.39434354497	1302.54914734126	129.028429474207	2387.21306311686	870.146807497081	141	1960.34046674813	1018.15924421768	145	1872.65323272155
821.455948372204	152.538700742388	1373.6119886827	1323.30183078162	210.252901202454	1951.3740023127	826.987172997126	173	1441.83532883976	1426.69258891138	150.988250197392	1964.01133774337	985.799377944846	162.38442764581	1831.32434701844	1158.62736158959	139.808522922548	1729.20229728351	1031.46223980287	139.998672777103	2002.85763802815	1174.68195197044	171	1849.90401299255	789.890798824491	153.684078874096	1267.55320917368	1718.44026468309	185.954626296559	2499.82023411798	980.492407818242	187.351704931501	1691.32720826634	1321.64142003997	140.852745919253	1763.91258025412	856.957896592907	176.105732463407	1847.2085756022	1303.13189806152	129.052473253798	2388.74282650923	870.602270447276	141	1962.14522544704	1018.22707064816	145	1872.83421621005
821.72277676378	152.532368476025	1375.23635035484	1323.29023445867	210.26491563227	1952.16463442142	827.382826975912	173	1443.58885101876	1426.85795286756	150.976220778044	1965.00526256017	986.513280651088	162.396557444281	1833.26626033526	1158.782726108	139.784854331646	1729.34589999355	1032.33819782906	140	2005.36718347442	1174.99475023235	171	1850.32665290761	790.65856643384	153.687401903449	1269.01288699771	1719.13916982405	185.974893555147	2501.07213992216	981.067842870392	187.402854090888	1692.58980247968	1322.08642937136	140.831332954842	1764.79931963572	857.388437148425	176.163024885569	1849.05209724722	1303.63659624754	129.084936148072	2390.21275965823	871.010151156274	141	1963.94179460767	1018.2319864188	145	1872.97305495552
821.860962443277	152.513944068774	1376.51108743818	1323.06924708516	210.27053500461	1952.58410071167	827.627442953734	173	1444.99520514797	1426.75699759692	150.95927654881	1965.54172434137	987.137901745106	162.409683521389	1834.80690240474	1158.80252664439	139.758325243571	1729.03393492661	1033.06766281967	140	2007.42903200924	1175.20837708623	171	1850.40236063625	791.275619444888	153.673127237637	1270.23650530709	1719.56799220081	185.988250197392	2501.95448177552	981.500155834986	187.45225808591	1693.6822042438	1322.27307648627	140.80343708915	1765.37022517408	857.748962814742	176.212892811209	1850.79047824913	1304.02077133508	129.123127125378	2391.43588627777	871.347590939699	141	1965.57043707049	1018.15891888972	145	1872.96729553758
821.853411165939	152.487012703035	1377.24894795192	1322.63506183303	210.274399508565	1952.45619313442	827.694817067196	173	1445.85025270074	1426.38677410018	150.938843073884	1965.44169637543	987.627789145568	162.429191154553	1835.77403947647	1158.68535450311	139.735351428674	1728.20873716996	1033.60822187414	140	2008.8686380304	1175.31222392331	171	1850.07490976882	791.704390609474	153.644710181284	1271.15346021239	1719.70868463883	185.995349747749	2502.43365952357	981.747398055369	187.500511931005	1694.52585380506	1322.19639458048	140.774392682645	1765.58984769828	858.012841140678	176.251052788896	1852.27730472828	1304.25797004626	129.162239137273	2392.24516557415	871.59619999271	141	1966.86422113558	1017.99817358231	145	1872.71000815208
821.699437598074	152.4563871475	1377.28200426145	1322.00522972497	210.281332842584	1951.62872207993	827.578248728341	173	1445.97081611884	1425.78457570234	150.917596325812	1964.57446624986	987.943948870316	162.457709632796	1836.0258115565	1158.4423803857	139.721295272823	1726.86575087118	1033.92630432361	140	2009.54840110874	1175.30502539014	171	1849.32816231026	791.928982903268	153.608654137799	1271.69997322939	1719.58457656715	185.998672777103	2502.49104348555	981.786399754621	187.547497211683	1695.02358297578	1321.89232301474	140.749915625771	1765.44779518133	858.160006113584	176.274809293177	1853.36650471557	1304.34280728639	129.196301052989	2392.50779203242	871.74506611437	141	1967.66816485362	1017.75097115829	145	1872.10022212119
821.413367866375	152.428229783086	1376.49191512196	1321.2171605054	210.29684670045	1949.99975761319	827.288304192864	173	1445.22478397787	1425.02004167444	150.898917788843	1962.88596201003	988.060116009338	162.494308759997	1835.477981114	1158.0995585265	139.719301145054	1725.06043415634	1034.00318932375	140	2009.39479731838	1175.19572862754	171	1848.19303065749	791.956093192235	153.571515573824	1271.83331836857	1719.26201026883	186.001327222897	2502.14328189189	981.619033911486	187.591259475828	1695.08684765542	1321.4347182618	140.732113878962	1764.97238286181	858.183039490053	176.28326706605	1853.93702810134	1304.29867252087	129.21954192883	2392.15849476033	871.796528965046	141	1967.87118395359	1017.43192856859	145	1871.06925082118
821.019650189191	152.406220468141	1374.82999109731	1320.32128153166	210.323816793953	1947.53818787198	826.851338201286	173	1443.55701987712	1424.1803342802	150.8861026212	1960.40919731722	987.966056713563	162.536570012316	1834.11456140018	1157.69292420291	139.731481791209	1722.900563434	1033.83741561494	140	2008.40437832961	1175.00233715245	171	1846.7407088887	791.816666965721	153.538246647314	1271.5475865382	1718.83847382963	186.004650252251	2501.45728475738	981.275343670148	187.629604113677	1694.66338276953	1320.92309102744	140.720517736897	1764.24231301531	858.09269524144	176.276136516073	1853.92698524255	1304.18177040286	129.227794757601	2391.22565233149	871.772688292775	141	1967.44590500449	1017.07552948588	145	1869.60405038456
820.551828744275	152.39519999676	1372.33677833661	1319.376094377	210.363016719226	1944.30320017791	826.305790859282	173	1441.01125593875	1423.360777035	150.881540282327	1957.27019375734	987.676172071758	162.580564520287	1832.00481346028	1157.26488095244	139.756678849214	1720.53246542757	1033.45179973569	140	2006.66153188771	1174.75075541144	171.001327222897	1845.08007471532	791.560695719116	153.513682432109	1270.88961515878	1718.42881362162	186.013077025505	2500.56963830611	980.81089380326	187.660833260654	1693.77299923331	1320.4685775516	140.714633737349	1763.39936432956	857.921477046166	176.255703041147	1853.3528830298	1304.07701888768	129.21954192883	2389.84017831941	871.716953498147	141	1966.46684816657	1016.73074185342	145	1867.75932973602
820.05126326521	152.397340492803	1369.15373614853	1318.44523902524	210.413123715479	1940.4517516928	825.699708298286	173.001327222897	1437.74291217595	1422.6554998676	150.8861026212	1953.68862255231	987.231290620811	162.621263575113	1829.30302748414	1156.86611209196	139.791949144403	1718.12173437759	1032.8993508521	140	2004.33733322364	1174.47911391038	171.004650252251	1843.34122922395	791.254568899151	153.498964574469	1269.96756598239	1718.14850778411	186.029756697104	2499.68908681654	980.304251324845	187.684449325184	1692.52898900068	1320.17984799975	140.712878799391	1762.64064860122	857.723244840499	176.225969836714	1852.34037480554	1304.09131944122	129.196301052989	2388.26007834474	871.693084158218	141	1965.13994479067	1016.45889349978	145.001327222897	1865.68189624024
819.563069179015	152.413932251023	1365.51599977158	1317.58835704647	210.471229480359	1936.22916415872	825.084693468329	173.004650252251	1434.00868183671	1422.14525722126	150.898917788843	1949.95816269487	986.697788762349	162.655775923566	1826.24679983984	1156.54993000784	139.833110610476	1715.84264285002	1032.26125908882	140	2001.6861020829	1174.23391523477	171.013077025505	1841.67341137537	790.976320008237	153.493226239507	1268.94381730686	1718.10307743299	186.057123506049	2499.06297787956	979.849547844329	187.701556711844	1691.12878765506	1320.14712391354	140.713306514452	1762.18232732185	857.563988896686	176.192781582672	1851.10421638089	1304.32804450487	129.162239137273	2386.82312659172	871.773385192468	141	1963.76771566314	1016.32057736996	145.004650252251	1863.58658027981
819.140464221421	152.44541558624	1361.7330438589	1316.8693801426	210.536075217686	1931.9500139515	824.518400442333	173.013077025505	1430.14474895526	1421.90291965366	150.917596325812	1946.42249610559	986.163708449253	162.684091291949	1823.13460481332	1156.37846203698	139.875545651725	1713.86862835402	1031.64282506031	140	1999.0168464008	1174.0746303438	171.029756697104	1840.23603457076	790.805264009631	153.495527389667	1268.01070274091	1718.37615796088	186.098013173577	2498.92941202986	979.5436864795	187.715867484646	1689.82103425353	1320.43685344367	140.715867484646	1762.21017981239	857.511897642367	176.164183192353	1849.92939199363	1304.8711129476	129.123127125378	2385.90689482455	872.028336751387	141	1962.71623855569	1016.36865299238	145.011749802608	1861.7382296516
818.84117746739	152.490706183477	1358.15451220611	1316.35249361494	210.605930785174	1927.96129563864	824.059233705607	173.029756697104	1426.52117755785	1421.98777272252	150.938843073884	1943.43465242256	985.725870915487	162.708222984919	1820.2975324487	1156.4126886119	139.915063851928	1712.36636769294	1031.15581097171	140	1996.65647537585	1174.06533379476	171.058450728946	1839.18905376791	790.816715048399	153.504586320247	1267.36860473491	1719.0282304164	186.152883822482	2499.48687255714	979.476950819048	187.730786656065	1688.87083233994	1321.08734468452	140.720364076354	1762.85387640757	857.627227554041	176.149016618753	1849.11643973329	1305.76609222726	129.084936148072	2385.84649812154	872.512629433034	141	1962.34256471406	1016.636883392	145.023779221956	1860.3981369175
818.721378074756	152.546953037308	1355.12097970243	1316.0990976993	210.683140032737	1924.59363382963	823.762275249233	173.058450728946	1423.49017428611	1422.43567532321	150.95927654881	1941.30020433982	985.479063415085	162.731219933348	1818.04930623828	1156.70835337386	139.947526746202	1711.47622463576	1030.90634383884	140	1994.90072493464	1174.27012335147	171.102663425828	1838.67131809669	791.07334773817	153.52019851941	1267.18452119013	1720.09505024048	186.219362643322	2500.84298860746	979.718868730039	187.751242848668	1688.49980959874	1322.1120594282	140.727463626712	1764.14950548014	857.9506745381	176.155136679626	1848.93134002597	1307.00991226391	129.052473253798	2386.87204762852	873.254022070282	141	1962.93142731939	1017.13561551035	145.04072345119	1859.78046956609
818.82966002956	152.610108828794	1352.91142301768	1316.16496509857	210.770162959557	1922.10825233816	823.675212922856	173.101336202931	1421.32934130967	1423.25628151283	150.976220778044	1940.21855058095	985.499911452972	162.756590935836	1816.65123821662	1157.30105217738	139.971570525793	1711.30283888542	1030.97291653039	140	1993.97758692151	1174.73570252371	171.16463362509	1838.78887599288	791.617971129007	153.541756572855	1267.57081089507	1721.58671313765	186.292987003669	2503.00148535581	980.311580592997	187.779042934895	1688.85459938463	1323.50105717123	140.738319483705	1766.04126044671	858.502136263019	176.188760580458	1849.56269008136	1308.56008183187	129.028429474207	2389.06408415915	874.251627648498	141	1964.64544661401	1017.85435476912	145.062484149013	1860.00857820525
819.195855341322	152.67393021096	1351.706743566	1316.58496018161	210.870319398524	1920.66173475143	823.829153073383	173.159983372839	1420.2092484863	1424.42319330407	150.988250197392	1940.2460080746	985.835976106662	162.786059582634	1816.26541335784	1158.19314470585	139.986922974495	1711.88567844894	1031.40158757037	140	1994.01521471075	1175.48159312935	171.244469088175	1839.58102294655	792.467269791024	153.568347933327	1268.56670974625	1723.48377839427	186.366448276164	2505.86480414904	981.263267699704	187.815186891758	1689.9863331455	1325.22280626507	140.752702742745	1768.39818637893	859.2807623861	176.250896996059	1851.08441538109	1310.34551001047	129.013077025505	2392.3269775495	875.479341921198	141	1967.48884667625	1018.76684678001	145.087053926439	1861.0837585322
819.824054371211	152.7309611344	1351.57484056578	1317.36632362218	210.986508382709	1920.29272948185	824.233951302282	173.232719285566	1420.18383288158	1425.87304265232	150.995349747749	1941.29855475307	986.499685741095	162.820295442833	1816.94652024317	1159.34484241559	139.995349747749	1713.19201588969	1032.19864042091	140	1995.04644391033	1176.48822929261	171.339687930007	1841.01754134169	793.607627822817	153.597125278888	1270.14211694097	1725.73324155217	186.432084568961	2509.26421027339	982.548951619208	187.857766622592	1691.85546537202	1327.22109944939	140.769385473256	1771.05197482281	860.269013923822	176.338622564971	1853.46144659525	1312.28770269102	129.004650252251	2396.43176679528	876.89385902045	141	1971.32720748881	1019.84037286022	145.112832013765	1862.90136983315
820.686647517491	152.774209448794	1352.46788218	1318.4766190231	211.119607655062	1920.92381936297	824.873833150922	173.315908708051	1421.19216900672	1427.50130448801	150.998672777103	1943.15921219468	987.466319539216	162.858194337653	1818.63346417679	1160.67765742415	139.998672777103	1715.10761259825	1033.3315950928	140	1996.99881766399	1177.69855672565	171.445332480036	1842.99034343867	794.996723931628	153.623831786216	1272.2067581819	1728.2465443335	186.482977383082	2512.98576617947	984.109553641528	187.904097097841	1694.34457428453	1329.41357850528	140.785287608929	1773.82159034952	861.438516420194	176.445420393414	1856.55833220592	1314.31850749217	129.001327222897	2401.05890335055	878.442602242954	141	1975.91018898192	1021.04700417759	145.137676600757	1865.27543304961
821.729446888442	152.800106449116	1354.24840854249	1319.85084510961	211.270366088497	1922.39104775616	825.709600021076	173.404609028846	1423.08758670644	1429.17980756199	151	1945.52511044551	988.677391118576	162.898467356106	1821.16446262801	1162.08256966756	140	1717.44577907535	1034.73295931995	140	1999.70923381473	1179.02493050424	171.554667519964	1845.32372352855	796.565153120047	153.644265261143	1274.63352613289	1730.8999474845	186.515973933763	2516.80858801118	985.86040605003	187.95322460461	1697.28945368934	1331.69028168596	140.797820726097	1776.54100688532	862.750904665667	176.560557081733	1860.17311575427	1316.38165081259	129	2405.86297924684	880.068527426337	141	1980.92489389629	1022.36320759297	145.159183168863	1867.98630347295
822.877342313905	152.807719949225	1356.71418549777	1321.39710459022	211.436902937435	1924.47735618599	826.683785519973	173.493510593848	1425.6649711041	1430.76544880458	151	1948.04898903503	990.052524646475	162.938843073884	1824.31014330216	1163.43670955682	140	1719.96782216071	1036.31000534326	140	2002.94949065376	1180.36311922618	171.660312069993	1847.80196521092	798.22729149739	153.655749731121	1277.28035568347	1733.54425848616	186.532622605742	2520.52682000172	987.698943318156	188.004650252251	1700.50465676729	1333.91841568276	140.803960583676	1779.06743396278	864.16279114891	176.674454460534	1864.06241128406	1318.43604203775	129	2410.51432170791	881.716652665462	141	1986.03582509836	1023.77297511887	145.176381527814	1870.81737383615
824.048480781133	152.800904615266	1359.63042462449	1323.0116271886	211.617680587782	1926.94305810622	827.73024118828	173.577908395805	1428.69233598936	1432.1222888303	151	1950.38269978049	991.497551880002	162.979732741413	1827.79609946414	1164.61832413127	140	1722.39887756302	1037.95142015045	140	2006.44914140867	1181.60652011472	171.755530911825	1850.18727239419	799.889756977922	153.659007564772	1280.0069607206	1736.01275464719	186.53879638391	2523.961627525	989.513403679195	188.061179643792	1703.80587603398	1335.94878788642	140.803895387974	1781.27931831058	865.627894779592	176.780186923941	1867.98209489065	1320.4464694814	129	2414.74660942875	883.33573947616	141	1990.93742018523	1025.26125893184	145.188136137596	1873.59239512075
825.164999281442	152.787298892152	1362.75951796946	1324.59293749542	211.810741787194	1929.56524961918	828.782888965254	173.654448700669	1431.9422620956	1433.14045610181	151	1952.2307620312	992.919691949178	163.021594481484	1831.3395263254	1165.52637857242	140	1724.45979995435	1039.54994648504	140	2009.93574311362	1182.66260297842	171.83536637491	1852.24994545945	801.461083914369	153.656981174553	1282.68720279653	1738.13846812476	186.543083795752	2526.95415461685	991.197726807919	188.125659599262	1707.02338470947	1337.6301482355	140.797459614002	1783.06430041236	867.095479718064	176.874340400738	1871.71479189845	1322.36886548002	129	2418.36628740743	884.876231143356	141.001327222897	1995.38364415953	1026.80275065451	145.19656291085	1876.18851927757
826.16212679924	152.774480596023	1365.88121533319	1326.05156084973	212.014404248402	1932.15116973719	829.781750790786	173.721468996109	1435.20757145666	1433.74910976874	151	1953.38068997139	994.238665425416	163.067134401264	1834.67500904127	1166.09365055053	140	1725.90419959075	1041.0122628492	140.001327222897	2013.16753777612	1183.46668957542	171.898663797069	1853.79699038462	802.860403792421	153.653731069045	1285.20675118561	1739.77160379007	186.554400321078	2529.35298149596	992.657521280074	188.200684106353	1710.00224463833	1338.82660951776	140.786757417551	1784.30215850193	868.514676780816	176.95927654881	1875.07996944026	1324.14456525737	129	2421.24458011381	886.291674402781	141.005977475148	1999.19419272564	1028.35904045906	145.20481100202	1878.52761689206
826.995568440447	152.770878019502	1368.8161703461	1327.32156276817	212.229642637308	1934.56023626806	830.679334953874	173.778876856499	1438.31966400475	1433.92601910388	151	1953.742979292	995.394374527492	163.11925992165	1837.58193423585	1166.29932646627	140	1726.55365332783	1042.27068179365	140.004650252251	2015.95646401073	1183.98896360057	171.947526746202	1854.69584665205	804.027547962977	153.654012723612	1287.46737098433	1740.80711689227	186.580838796002	2531.01900664059	993.822950067392	188.286149311173	1712.60237227142	1339.44216364571	140.772472441285	1784.87016845868	869.834160224323	177.04072345119	1877.94704306202	1325.70284027791	129	2423.31186508074	887.538508168251	141.016400054859	2002.26258519644	1029.87969820035	145.216306674912	1880.57174058132
827.642076008037	152.78045807117	1371.43386390509	1328.36663480989	212.458497418919	1936.70482611171	831.4438518064	173.827651892254	1441.15001532369	1433.69717633938	151	1953.34639302185	996.357398345947	163.181984939161	1839.90758411129	1166.18207094429	140	1726.3424168047	1043.2914003815	140.011749802608	2018.18345792518	1184.24630641855	171.986643357755	1854.90107212932	804.928562899964	153.66111227397	1289.39774956411	1741.20317298064	186.627164464077	2531.84149012182	994.654544392861	188.380940437944	1714.70999911941	1339.43939167378	140.755880683065	1784.66231811697	871.005078878057	177.125659599262	1880.23838085539	1326.9685352879	129	2424.54963780426	888.578248887036	141.036856247461	2004.54939493778	1031.30530852857	145.235689774334	1882.31179818148
828.097599655744	152.803698947011	1373.64967872363	1329.1750743304	212.703943958751	1938.54020980472	832.05769337725	173.870488314637	1443.60757629817	1433.12315984812	151	1952.31228763618	997.124450471793	163.257284255818	1841.58057572649	1165.82638714529	140	1725.33540089157	1044.06952747516	140.023779221956	2019.80526709174	1184.2911102317	172.023779221956	1854.46273303337	805.560976196975	153.677510291001	1290.94974664844	1740.99746351662	186.695237568757	2531.7545347463	995.147549909867	188.482803659796	1716.23542112924	1338.85600762551	140.739196273865	1783.61519525811	871.987275231364	177.219813076059	1881.92750877127	1327.87979035548	129	2424.98229712715	889.383989243477	141.070480148294	2006.07400648195	1032.58053771945	145.265715836247	1883.7551635534
828.370302311013	152.837760862727	1375.42076942005	1329.76000915232	212.970725160034	1940.05005876012	832.513794004487	173.910496775454	1445.63229788029	1432.28254666074	151.001327222897	1950.80869857695	997.715805333737	163.344250268879	1842.61934470307	1165.34734510431	140	1723.71864381859	1044.62739367474	140.04072345119	2020.86117554505	1184.20035848849	172.065829896043	1853.51752354761	805.953403790408	153.705009323787	1292.11999302034	1740.30662301749	186.785113885642	2530.7910150784	995.333733003232	188.589772304236	1717.14584040384	1337.80515739354	140.724928848962	1781.76019390217	872.756022365631	177.326872762363	1883.04281044818	1328.40756158497	129.001327222897	2424.68977430492	889.946678559257	141.119607655062	2006.9118641354	1033.66225629621	145.307743792658	1884.92450591339
828.478791129381	152.878200097519	1376.74036258087	1330.15102094663	213.263523588827	1941.23945061303	832.819008116135	173.953247322286	1447.20266421326	1431.26316881804	151.005977475148	1949.01692519064	998.172691852968	163.440770141163	1843.12527047077	1164.87083917746	140	1721.7690938116	1045.01346005643	140.061156926116	2021.47469304241	1184.06168026365	172.118280432165	1852.26502703754	806.158855856894	153.742542020895	1292.95102342264	1739.30156168992	186.893295647157	2529.09392563597	995.273989890282	188.701818569705	1717.47453140306	1336.45242698827	140.716645020572	1779.24445320409	873.308284228493	177.446747616311	1883.67008560167	1328.57263075141	129.004650252251	2423.82650505438	890.282656326941	141.185067100016	2007.19637044306	1034.53315808583	145.36144862783	1885.86384648212
828.449431509908	152.919714104178	1377.63627746377	1330.3939724422	213.588385067967	1942.13300236687	832.991283862228	174.005433300773	1448.33836323236	1430.15765412096	151.017727277756	1947.10716761509	998.54423074088	163.543179575217	1843.26929154816	1164.50420949461	140.001327222897	1719.80309896128	1045.29494075603	140.083730897085	2021.84307618517	1183.95230897445	172.186394322913	1850.937769207	806.246657584617	153.791409707629	1293.52642103313	1738.18035159853	187.017727277756	2526.91393720468	995.053770108492	188.821710579108	1717.325454793	1334.99221546094	140.717973922157	1776.32530492691	873.666123538605	177.576957136592	1883.94798805924	1328.44395305499	129.011749802608	2422.62429153103	890.431915724709	141.265715836247	2007.10770136185	1035.20139779727	145.42489900511	1886.64375270237
828.318948310265	152.95927654881	1378.17576508498	1330.5483587858	213.952641096712	1942.78325323346	833.062462220595	174.076178006701	1449.10666829421	1429.0691885185	151.041506499712	1945.24508373883	998.885273267863	163.647611008173	1843.25874565477	1164.33005789524	140.005977475148	1718.12083998444	1045.54996504632	140.107059686304	2022.20443684402	1183.93643756133	172.271693311394	1849.75952425483	806.289408438235	153.851356645157	1293.96141610092	1737.13151328696	187.156842773497	2524.5864253774	994.765852830939	188.953237022463	1716.86478986037	1333.61168521863	140.731481791209	1773.33774527775	873.869098140941	177.715960960246	1884.04413502973	1328.12210077508	129.023779221956	2421.36270051575	890.448075850124	141.358366466975	2006.8481202416	1035.69504917752	145.496043067732	1887.35427723424
828.131332691536	152.996676970646	1378.4627257227	1330.68254256178	214.36454618252	1943.27426422394	833.07368012874	174.173143574122	1449.61649593857	1428.10629216937	151.082229950902	1943.59859528172	999.24346851486	163.753338664406	1843.31027599072	1164.39382386272	140.017727277756	1716.96761537181	1045.84888012272	140.131624656556	2022.79472323771	1184.05427806003	172.377420967628	1848.92364633857	806.352577270066	153.921839493225	1294.38396224087	1736.30122684877	187.310398238451	2522.47481032078	994.495598345279	189.10225634099	1716.29124861057	1332.45663072728	140.756678849214	1770.6325538054	873.966949939512	177.862416874843	1884.13343707076	1327.71571893589	129.042050674087	2420.32769525594	890.387988596525	141.45814764768	2006.61579317006	1036.05312089108	145.572306884342	1888.09539699623
827.936719329315	153.033623900832	1378.63061421565	1330.87081043415	214.833657884512	1943.71811751863	833.072547516514	174.303370249857	1450.00390703994	1427.37542775968	151.143386877018	1942.3350350578	999.655331122643	163.862416874843	1843.6107310399	1164.71363840204	140.041506499712	1716.50409494629	1046.24331600922	140.159966217385	2023.79573615831	1184.329890592	172.505631622539	1848.57179174601	806.487545728926	154.003859696781	1294.91230319471	1735.78034051918	187.482276640875	2520.90534319492	994.311693002452	189.274225785278	1715.79908947225	1331.62099496789	140.791949144403	1768.50844961046	874.008399195199	178.019054500653	1884.3602291207	1327.31506740776	129.067134401264	2419.73656039659	890.29788869118	141.559229858837	2006.56426786754	1036.31381042846	145.650934037526	1888.94585640735
827.781052387827	153.074233951621	1378.8153058131	1331.18000632354	215.368581502472	1944.23158439687	833.103542096826	174.470259639381	1450.40115222247	1426.96137016129	151.225790551206	1941.59865474807	1000.14004486192	163.981676796493	1844.29885268239	1165.27957860681	140.082229950902	1716.80680051396	1046.753195763	140.196127329702	2025.31030009394	1184.76799304663	172.659187087494	1848.79275899653	806.7291742962	154.097499223826	1295.64771547663	1735.60287423214	187.676988834302	2520.13767410915	994.25938561071	189.474920191454	1715.56185037292	1331.14398047294	140.833110610476	1767.1795069362	874.034330629209	178.192371798061	1884.81645019466	1326.97208379009	129.100130951944	2419.6851499966	890.20831956909	141.657076954018	2006.77745187627	1036.50186120919	145.731310905639	1889.93588355586
827.697569231281	153.122582951003	1379.13230403165	1331.65417021806	215.976241033159	1944.91100716487	833.198273892119	174.673865390414	1450.91452225194	1426.90234138086	151.326872762363	1941.47969716648	1000.700293358	164.120390703584	1845.44941474858	1166.06142100791	140.144714099915	1717.87313235576	1047.37210053969	140.245796311071	2027.35452359982	1185.36098927857	172.841970330747	1849.62107607128	807.096127248764	154.202418414088	1296.65983047378	1735.76207452113	187.898744065557	2520.3287715438	994.362304528337	189.708050036627	1715.70368166927	1331.02427088706	140.875545651725	1766.75401893331	874.076805666367	178.391300966456	1885.53962157741	1326.7020415631	129.142588710868	2420.13833359815	890.135173822959	141.748693219329	2007.27382026152	1036.63002307322	145.813195892475	1891.04022017013
827.700728287832	153.183312162058	1379.65687787048	1332.31011395999	216.659925240271	1945.81502886033	833.37245383352	174.909807374103	1451.60949871208	1427.18021531593	151.44209736406	1941.99256352203	1001.32623311984	164.288891532403	1847.07364769867	1167.01619564542	140.231768026354	1719.63622809305	1048.07355783324	140.314171700542	2029.87194488645	1186.09138809716	173.056713721437	1851.04563901203	807.593678941198	154.315908708051	1297.9960093673	1736.23173586854	188.149364352165	2521.56453055558	994.62952201619	189.975095795545	1716.31200979957	1331.2411079348	140.915063851928	1767.26947951391	874.162841155075	178.625663517893	1886.51574045636	1326.50045671232	129.196127329702	2420.94986601205	890.087004026155	141.834415115697	2008.01339281113	1036.70580008587	145.898917788843	1892.18028208014
827.783553142499	153.258611478715	1380.41683255307	1333.13343855664	217.419315848877	1946.95777266046	833.624375535858	175.173131156268	1452.50523836384	1427.71988912493	151.565207333984	1943.06574095294	1002.00278160003	164.496693307131	1849.12164645018	1168.09551924142	140.344600040119	1721.97884572983	1048.82829630249	140.405756966235	2032.74716692558	1186.93886155287	173.306001977975	1853.00811669104	808.221205357154	154.433582677428	1299.67330650576	1736.99021705035	188.428330937204	2523.85075417344	995.061953143518	190.275553008175	1717.42218051718	1331.77381098326	140.948853969099	1768.70108292222	874.318385674587	178.904106608406	1887.70547308589	1326.3652994857	129.261846594691	2421.93382014643	890.076182650668	141.917596325812	2008.9354105946	1036.74530800978	145.991830277433	1893.26123066087
827.925502738412	153.34890052113	1381.39894185352	1334.08962835113	218.249321580823	1948.31515655013	833.94059828805	175.458502981141	1453.58684575348	1428.41051079654	151.690854515393	1944.55367412194	1002.71682249484	164.748790643271	1851.49591241651	1169.25336211193	140.482276640875	1724.74604757253	1049.60959479514	140.523000092065	2035.82966554872	1187.88446719259	173.590134493329	1855.4090497803	808.970312137867	154.55134449061	1301.68838172754	1738.02596404575	188.732896927484	2527.14486990692	995.656690145096	190.60673098915	1719.03310071514	1332.60203331736	140.977548000941	1770.99331439677	874.570759720178	179.23026708017	1889.06438445353	1326.31666633059	129.339687930007	2422.94112165878	890.123592808691	142.00334574703	2009.98741794823	1036.78206007784	146.095049925719	1894.21539403324
828.097563881165	153.453847166669	1382.55577716425	1335.13125395394	219.141463728369	1949.83859659044	834.302107684299	175.761334663686	1454.81111531653	1429.12832839062	151.815715948506	1946.25244257478	1003.45917475348	165.045889553076	1854.06037556107	1170.44729427224	140.641459809738	1727.75184198766	1050.39690636584	140.665239031694	2038.94330557546	1188.91118565841	173.907175645985	1858.11009251977	809.826884153731	154.664962322244	1304.00666790334	1739.32939639994	189.058450728946	2531.33564368229	996.401818887441	190.964986825071	1721.09065011322	1333.70119975685	141.004650252251	1774.044300575	874.948104437234	179.601884295937	1890.55715073367	1326.40170688633	129.42795497352	2423.90823841475	890.259086183583	142.09668595068	2011.14295474789	1036.87052743836	146.210845187342	1895.0316057623
828.27660262412	153.571609049424	1383.82062724878	1336.21769075509	220.084340222321	1951.46326997711	834.691327479071	176.078884203872	1456.11811662279	1429.77661192714	151.938843073884	1947.93634138383	1004.22471051408	165.382521652615	1856.66091686389	1171.63732389686	140.816514114655	1730.78951681464	1051.173382873	140.828263917263	2041.91423428632	1190.00038936751	174.25341705209	1860.94135393057	810.767823833512	154.773258189581	1306.56661591702	1740.88153536286	189.400850418345	2536.24650847884	997.278384721618	191.345665405154	1723.49988830042	1335.02966594693	141.036856247461	1777.70629240384	875.474458241363	180.011340017997	1892.16599265817	1326.68200720059	129.524501038249	2424.86828184655	890.51523344393	142.20201132925	2012.40579811542	1037.07286310235	146.339687930007	1895.76246635897
828.450121810859	153.70008426197	1385.1253334928	1337.32413866167	221.064428204093	1953.13392742055	835.100544306231	176.409276436551	1457.44984711929	1430.31004218979	152.061156926116	1949.41196457955	1005.01197210575	165.748519496042	1859.14714397699	1172.78825133653	141	1733.64824341822	1051.92865583556	141.004650252251	2044.60224416417	1191.1338435212	174.622330840033	1863.72007914783	811.758583267524	154.876872874622	1309.27569030613	1742.62851161533	189.755357188539	2541.62011482159	998.25213041309	191.742542020895	1726.12311504143	1336.51169148123	141.080902728005	1781.7647809261	876.16258206039	180.446747616311	1893.88445887475	1327.2100766716	129.625037037203	2425.92019165873	890.916615737161	142.321100434902	2013.79375024223	1037.44168319745	146.480283603765	1896.50152804531
828.622276743237	153.836947589581	1386.41200809643	1338.45041382297	222.068461624161	1954.80809153898	835.533573722668	176.749915625771	1458.75662404434	1430.75118961609	152.184284051495	1950.56395449257	1005.81970198947	166.131624656556	1861.40112988936	1173.87166692408	141.183485885345	1736.14644132383	1052.65565283581	141.184813108242	2046.93074755813	1192.29140687531	175.005977475148	1866.28370467001	812.757005665564	154.979566525074	1312.01988639736	1744.48025762773	190.117482266016	2547.14115546924	999.278644979843	192.150753626262	1728.79916581396	1338.04034375558	141.143386877018	1785.95229965247	877.01190839583	180.895144326752	1895.71184313231	1328.01039364001	129.725600491435	2427.17988704896	891.470902486267	142.453847166668	2015.32193940621	1038.00502714882	146.628901471585	1897.3508177489
828.815147112701	153.979566525074	1387.65043942878	1339.62264160721	223.083730897085	1956.47993700068	836.007130391281	177.098557347952	1460.01095356128	1431.18946203304	152.310472707504	1951.40275067533	1006.64534168556	166.519833630544	1863.35091602639	1174.87430249681	141.359867413159	1738.16450777553	1053.3529189172	141.358540190262	2048.89480396817	1193.45590805537	175.39672366062	1868.5166494196	813.717009149026	155.084936148072	1314.67996527818	1746.32547852864	190.483777587059	2552.46914286039	1000.31065560572	192.565207333984	1731.36703579445	1339.49594054622	141.225790551206	1789.97322230198	878.002046389928	181.344517467766	1897.64631076042	1329.05673140184	129.823095115603	2428.72795697395	892.161223996569	142.599409135651	2016.98990878011	1038.74883287165	146.782895020996	1898.38730514691
829.057233347845	154.124861433113	1388.83581301239	1340.88237647615	224.101082211157	1958.17396411671	836.543007496408	177.451048097322	1461.20255153499	1431.75101273659	152.440770141163	1952.05776222205	1007.48410053529	166.90331404932	1864.98806878983	1175.80572148784	141.523700834272	1739.68115669215	1054.02244923406	141.519050582022	2050.5591496647	1194.62144694691	175.788089447622	1870.38406757975	814.600385742721	155.197361077	1317.14684809424	1748.05752288711	190.851900819532	2557.29678258862	1001.30483486157	192.982198253191	1733.68744887789	1340.77501861446	141.326872762363	1793.5488432497	879.094073091167	181.785959251402	1899.66445888898	1330.27550111886	129.913736629031	2430.55458903815	892.946930682508	142.755357188539	2018.75644498827	1039.62165385654	146.938843073884	1899.62408301438
829.374951449788	154.27053500461	1389.98238544426	1342.27097323972	225.1138973788	1959.93665823538	837.158484120759	177.803686529158	1462.33107686936	1432.5562139035	152.575629913695	1952.73904132642	1008.323665881	167.276136516073	1866.3480965693	1176.68967857602	141.673127237637	1740.77036307485	1054.65697022332	141.661377435029	2052.01428582832	1195.7840372005	176.176381527814	1871.92749497566	815.382209398851	155.318445989109	1319.34128766176	1749.60443329167	191.221755231254	2561.404966084	1002.23020196255	193.400046689974	1735.66360579162	1341.81706654888	141.440770141163	1796.47153656656	880.236987423923	182.214979589957	1901.72766132146	1331.56236920429	129.995327030073	2432.56414434401	893.773055030929	142.917596325812	2020.55622459626	1040.54771491246	147.092650630728	1901.01515422173
829.776109545379	154.414453707722	1391.09478593686	1343.81026910623	226.117132494776	1961.80322933462	837.854739757476	178.153278489466	1463.38543916268	1433.66964332351	152.714633737349	1953.64880556445	1009.14418308737	167.635656057877	1867.4943813615	1177.5577946505	141.809738473358	1741.5780778457	1055.24184193794	141.785959251402	2053.34951342455	1196.94374455291	176.559229858837	1873.25048226504	816.057062271127	155.447869691521	1321.22744444729	1750.94450592305	191.594758883401	2564.70334481644	1003.07198771019	193.818968219936	1737.25658474233	1342.62073004326	141.559229858837	1798.64555609253	881.375058268688	182.629883730417	1903.78393202138	1332.80895303985	130.06600361933	2434.59572329987	894.583991476666	143.082403674188	2022.31173844	1041.44434297583	147.241586843051	1902.46322629501
830.244667362988	154.555994742861	1392.14832568946	1345.48710369883	227.107919903653	1963.77589465513	838.612267189253	178.49807293272	1464.33662480228	1435.07148092025	152.856439399695	1954.90501722956	1009.91888261374	167.982272722244	1868.49653442317	1178.42943336428	141.937515850987	1742.27593088554	1055.75739045311	141.896792399797	2054.63724412445	1198.09276633319	176.937515850987	1874.48430285381	816.637712015649	155.583009080793	1322.8114994782	1752.10899117898	191.973044875551	2567.23286831202	1003.83263166063	194.239556978063	1738.4810245433	1343.24062269117	141.673127237637	1800.09930573728	882.461589104582	183.032727451909	1905.78400156806	1333.93166658084	130.125405607488	2436.47730791365	895.339908870145	143.244642811461	2023.96629801567	1042.24633204561	147.383646635115	1903.85358079046
830.738863040975	154.695841094557	1393.07189887873	1347.25620187424	228.084682156298	1965.80209323314	839.390603110738	178.837491763956	1465.13009024249	1436.65379741502	153	1956.47737664015	1010.6183004444	168.316859967263	1869.40228964208	1179.29709554862	142.061156926116	1742.99746768717	1056.18913023139	142.001327222897	2055.92400354565	1199.21306808331	177.312992763535	1875.74115862353	817.147596014724	155.719828163974	1324.13948337892	1753.16259170365	192.357039244078	2569.15103411592	1004.52811920595	194.661110236143	1739.40310971192	1343.76507938745	141.774209448794	1800.97507695117	883.469391179566	183.427693115658	1907.69693604453	1334.89464788228	130.175054304917	2438.07926095657	896.02970006896	143.399263641452	2025.50498700227	1042.9214829347	147.518073130364	1905.08731873292
831.198782624158	154.835106416933	1393.75413365357	1349.04379868953	229.046874649624	1967.78109649379	840.13692305595	179.172534248886	1465.70179967071	1438.23821126346	153.143560600305	1958.18514502695	1011.22095514442	168.640306310128	1870.22801184391	1180.12519157053	142.184284051494	1743.78790825391	1056.54289374138	142.106530629557	2057.24392508537	1200.27649122226	177.687007236465	1877.07728887276	817.6146126064	155.853093652666	1325.28111061401	1754.17719820618	192.744841133228	2570.6717203418	1005.18105368768	195.082403674188	1740.11787028093	1344.28334969873	141.856613122982	1801.47768968669	884.397437471996	183.820295442833	1909.53272896748	1335.71938327266	130.21726344672	2439.37487712028	896.677039244449	143.541502581081	2026.98938043669	1043.48389587666	147.646283785276	1906.13134444273
831.562445657529	154.974102999677	1394.07070401457	1350.77255299534	229.99665425297	1969.59925223811	840.798664350667	179.50438117256	1466.00029910715	1439.62238740043	153.285366262651	1959.74087208525	1011.71653663088	168.953299073663	1870.95182932758	1180.85201054082	142.309145484607	1744.57768714724	1056.8525781541	142.219813076059	2058.61928573881	1201.25086334146	178.061156926116	1878.47273535573	818.067915598693	155.980523296882	1326.30657532751	1755.21004076425	193.131810797696	2571.98844866693	1005.82061834144	195.50112890113	1740.71869936798	1344.86042220751	141.917770049098	1801.79909676212	885.272906962319	184.213906358835	1911.34387535459	1336.47712704313	130.256486089669	2440.44665207138	897.340895881207	143.668476985386	2028.55234421595	1043.99164293391	147.771140411214	1907.03820829899
831.780299240735	155.11137732277	1393.90922948009	1352.38083230269	230.938843073884	1971.14962338932	841.337076894175	179.833512133093	1465.99702367237	1440.62622120444	153.423042863408	1960.81229220276	1012.10980176298	169.255703041147	1871.51800098366	1181.40238471059	142.434792666016	1745.18857338371	1057.17323993558	142.344674509171	2060.06038181784	1202.10592672199	178.434792666016	1879.83066162494	818.530452183009	156.101082211157	1327.27366076299	1756.28150211303	193.512095655216	2573.21797584829	1006.47038883579	195.913736629031	1741.27588577605	1345.51327013938	141.958493500288	1802.05488680412	886.140136505472	184.611703112635	1913.20566983851	1337.26222704986	130.297209540859	2441.43872113861	898.097463227178	143.778859701044	2030.36242493358	1044.53288587748	147.895835627988	1907.93012725565
831.825922384183	155.244642811461	1393.20293492575	1353.83743693553	231.878891398755	1972.36980888406	841.733699893297	180.159183168863	1465.70372207283	1441.1228993151	153.553252383689	1961.10395186728	1012.41887000919	169.547480056228	1871.85266009874	1181.70306706137	142.55790263594	1745.37313694245	1057.57398072595	142.481493592353	2061.56679562636	1202.81939970426	178.805891194431	1881.00146373254	819.01807474513	156.215777756107	1328.21617808373	1757.36874360241	193.879065122041	2574.36609044081	1007.14565253729	196.317293244546	1741.8205057404	1346.20767629918	141.982272722244	1802.25573666619	887.05345014278	185.012029419348	1915.21099546829	1338.16945711818	130.344250268879	2442.53327371222	899.027863413406	143.874340400738	2032.60363096761	1045.20631521673	148.023779221956	1908.98986550454
831.702028478062	155.37028999287	1391.95476968354	1355.14366015381	232.820959219219	1973.2552571464	841.993374115745	180.477891549684	1465.17287660138	1441.05927378284	153.673127237637	1960.42695076777	1012.67111352068	169.82843764055	1871.8956777239	1181.70172922782	142.674454460534	1744.88711701278	1058.1239598945	142.6263642601	2063.1422667914	1203.38465768953	179.169076829769	1881.83087866967	819.543541038379	156.326522991124	1329.14509350474	1758.42110049617	194.227706844223	2575.34425579315	1007.85505639324	196.709200436576	1742.34657882247	1346.8794555954	141.994022524852	1802.32053026774	888.062601828071	185.412340666957	1917.43288316611	1339.27287301808	130.400844856123	2443.8714009246	900.198297132481	143.95927654881	2035.40854184276	1046.10255953372	148.155310402913	1910.39575189922
831.440966374591	155.484995907215	1390.23976016069	1356.33680956363	233.764638686493	1973.85946835844	842.145762288695	180.787286474299	1464.49171674359	1440.46458651395	153.780186923941	1958.73856831342	1012.8994784864	170.101082211157	1871.63154040974	1181.38238962044	142.780186923941	1743.56892147243	1058.88330792724	142.773258189581	2064.80578883012	1203.81382100538	179.517723359125	1882.21409993616	820.116655906803	156.434792666016	1330.06085985373	1759.37937876275	194.553867315988	2576.0317439005	1008.6017609828	197.088005185652	1742.83303043061	1347.45853016551	141.998672777103	1802.13271948396	889.199761907398	185.808522922548	1919.90629618492	1340.60628883609	130.468678424709	2445.52609817847	901.640118622414	144.04072345119	2038.81894788806	1047.27924359901	148.290016514902	1912.28126307863
831.099360459218	155.586073311198	1388.2044510472	1357.47425478212	234.702431650911	1974.28555766815	842.237314035464	181.084928537393	1463.77162788829	1439.43934857338	153.873013177841	1956.15803116547	1013.13998111662	170.367863412439	1871.11121208682	1180.77787340348	142.874340400738	1741.40714899349	1059.89575629368	142.916798159662	2066.59871366531	1204.14267121363	179.844863320374	1882.13950657672	820.747052983547	156.54185235232	1330.96563595923	1760.20782355781	194.856613122982	2576.34099348399	1009.38683518204	197.452693667058	1743.26071407525	1347.9018015171	142	1801.6095584542	890.470664706359	186.196301052989	1922.61190259166	1342.16098500177	130.546953037308	2447.49626916352	903.337801198694	144.125659599262	2042.76024748947	1048.7512578332	148.424370086305	1914.70328524711
830.748947684677	155.67180001474	1386.05009423304	1358.61977534795	235.618874477113	1974.6698237381	842.322746943694	181.371617215767	1463.13705660456	1438.13727634951	153.954626296559	1952.95022229562	1013.4291252246	170.632136587561	1870.45476221007	1179.97342620908	142.95927654881	1738.56699693793	1061.17682745078	143.052740452684	2068.57151981759	1204.42878309825	180.144499441664	1881.70705269246	821.443247976329	156.647611008172	1331.8721887744	1760.90814604613	195.136784959008	2576.28832122628	1010.20862035649	197.803872670298	1743.63430202751	1348.20954439591	142.001327222897	1800.76067981698	891.847074522888	186.571930920657	1925.45351730823	1343.88833148722	130.632136587561	2449.7014181226	905.22019913649	144.219813076059	2047.02004161409	1050.48510055073	148.553252383689	1917.61780725106
830.463425491247	155.744042967078	1384.00667218951	1359.82892425341	236.492865106611	1975.16335678835	842.454164320269	181.649360433535	1462.70518682907	1436.73738374552	154.028973648582	1949.4779448618	1013.79392305782	170.897590565946	1869.82777366404	1179.08980718703	143.04072345119	1735.36436291526	1062.70143909253	143.179616643789	2070.74912772592	1204.73793404484	180.414515758922	1881.10846547098	822.211745584608	156.752011441509	1332.80175600875	1761.52131401566	195.399263641452	2575.9919737573	1011.05968754579	198.142871027382	1743.97015562754	1348.42251028661	142.005977475148	1799.68780377704	893.262312815075	186.932603740875	1928.26152906037	1345.70011776365	130.718500941078	2452.00062646114	907.161908864809	144.325545539466	2051.2669645653	1052.39954813496	148.67180001474	1920.8894079312
830.30426893961	155.805287806573	1382.300959762	1361.12898617298	237.298568260017	1975.90583246128	842.667848111729	181.923241185174	1462.57275093451	1435.41161312735	154.101880377306	1946.13791568107	1014.24620964005	171.165584884303	1869.40209950576	1178.2598206097	143.125659599262	1732.19940521839	1064.392293698	143.298181430295	2073.10162290086	1205.12897219087	180.655399959881	1880.57696809517	823.046229656762	156.856439399695	1333.77463616881	1762.10104000138	195.649360433535	2575.64014975539	1011.91555085589	198.470848709501	1744.28773894166	1348.59324156882	142.017727277756	1798.55089697743	894.617394420581	187.276048602695	1930.7983775291	1347.47308854102	130.799315893647	2454.19380989274	908.993972226605	144.440770141163	2055.0809648495	1054.371159512	148.774209448794	1924.29847753201
830.309543890131	155.862323399243	1381.1183412833	1362.51489751471	238.011620782695	1977.00036572261	842.97863000838	182.19644093894	1462.79843318235	1434.29797205616	154.179089624869	1943.28875352881	1014.78032256227	171.436119888913	1869.32033211782	1177.60177944215	143.219813076059	1729.47406182253	1066.13248474138	143.410227695764	2075.54507623402	1205.64088440604	180.871439573849	1880.33758423708	823.926821917432	156.96262229584	1334.79257558078	1762.68919293557	195.892940313696	2575.41044888647	1012.7342744754	198.789732713493	1744.57850928179	1348.76413652286	142.041506499712	1797.49735296547	895.792711817299	187.600214946691	1932.78100878654	1349.06030492301	130.86836292559	2456.0256577676	910.525799271437	144.559229858837	2058.00329895343	1056.24873572041	148.856613122982	1927.55866913602
830.491184708591	155.922697010799	1380.5764246993	1363.950315901	238.61253086453	1978.4918664761	843.378592397688	182.472439468947	1463.39595604799	1433.48880707196	154.26438861335	1941.19908433708	1015.37362818513	171.707440711392	1869.66573782395	1177.1972261574	143.325545539466	1727.51049451569	1067.78517634055	143.517196340204	2077.96090486099	1206.28159082798	181.069326648683	1880.55255700604	824.818872844451	157.072906728724	1335.83687640483	1763.29940392418	196.135284012824	2575.41524531128	1013.46179001048	199.09975498826	1744.80589385145	1348.94665612412	142.082229950902	1796.61377680218	896.668805339946	187.904954881454	1933.92998169223	1350.30366039895	130.922420301349	2457.21209680099	911.576680689373	144.673127237637	2059.61256378193	1057.86947600197	148.917770049098	1930.35473488062
830.833572246175	155.993848801566	1380.71477250885	1365.37851595204	239.090678709853	1980.36830283086	843.844353441744	182.751225693213	1464.34210294505	1433.02433629385	154.358366466975	1940.02764562412	1015.99722051275	171.977548000941	1870.45903569361	1177.08816016745	143.44209736406	1726.51191187675	1069.23253858087	143.620386784953	2080.24614001567	1207.03530977326	181.256392614069	1881.30111528268	825.678835648224	157.190261526642	1336.86362499154	1763.91160884675	196.379613215047	2575.64317175309	1014.04297047352	199.399263641452	1744.89859104679	1349.12141468993	142.143386877018	1795.87939286	897.147268338814	188.190323577841	1934.02054036945	1351.05214647015	130.961147946082	2457.47189663278	912.006604921325	144.774209448794	2059.59730919339	1059.080182259	148.958493500288	1932.37871641796
831.301999982308	156.080902728005	1381.49317590103	1366.73768081757	239.446525120798	1982.56055365078	844.345744029165	183.029759396878	1465.58256148475	1432.90293446178	154.45814764768	1939.81577641602	1016.62700056704	172.243409064164	1871.66534743455	1177.28059311921	143.563880111087	1726.54854902289	1070.40532493082	143.718500941078	2082.34658610344	1207.87167189561	181.440770141163	1882.58034386543	826.465669320278	157.316450182652	1337.81132388951	1764.4929353905	196.6263642601	2575.96349074322	1014.44011273933	199.686390404282	1744.7693261808	1349.25511311608	142.225790551206	1795.17395697129	897.172538454466	188.457771683996	1932.92583306403	1351.19105422245	130.986922974495	2456.5680203996	911.745398843812	144.856613122982	2057.81212992586	1059.76446144867	148.982272722244	1933.37596240061
831.848925257553	156.185067100016	1382.81141855601	1367.97111179738	239.692771864606	1984.96430005485	844.852056346331	183.304478076902	1467.04644276449	1433.08490042499	154.560557081733	1940.50381094071	1017.24563963854	172.505172483078	1873.19880800716	1177.75063643138	143.686204263142	1727.5660018541	1071.29225793973	143.811065696255	2084.25836292781	1208.74994403818	181.62971000713	1884.30862101031	827.150970996724	157.451192720875	1338.6187853555	1765.0197894844	196.87381134399	2576.17006273702	1014.64374696219	199.958493500288	1744.34328521906	1349.32619919853	142.326872762363	1794.32083325533	896.741047328749	188.707873213679	1930.64189813434	1350.65661380196	131.005772327461	2454.34084426171	910.804592966316	144.917770049098	2054.30292452978	1059.85471988737	148.994022524852	1933.17836807277
832.421615309279	156.303093540407	1384.52963264392	1369.03737753881	239.849904350689	1987.45631826866	845.337534640955	183.569936792888	1468.65322866769	1433.50385496312	154.660399983371	1941.95018754645	1017.84848711718	172.76271363796	1874.94760888388	1178.45930404961	143.802638923001	1729.41633572278	1071.93982344963	143.898119622694	2086.02245705928	1209.63444636859	181.828263917263	1886.35527720818	827.726607815677	157.593431660504	1339.24173309292	1765.49454792923	197.120211180862	2576.0555463677	1014.67538930827	200.212325144163	1743.58260180352	1349.34054406937	142.440770141163	1793.15333331157	895.901490314624	188.940222048158	1927.28821521819	1349.45516098977	131.022451999059	2450.73670194407	909.276578515319	144.958493500288	2049.29456792375	1059.3474311756	148.998672777103	1931.72391648502
832.968981038488	156.429020338555	1386.48662300197	1369.90966152297	239.943884104199	1989.90619224729	845.780315844145	183.821223984369	1470.31532364924	1434.07121658249	154.75446554679	1943.94327588471	1018.43408486154	173.016944229234	1876.7766126119	1179.34839931955	143.90908637678	1731.88053824525	1072.42477985102	143.980871030295	2087.68546467444	1210.48662307383	182.040179276815	1888.55103703819	828.20083179589	157.737629910783	1339.67035626657	1765.94510313995	197.361885937291	2575.4909636462	1014.58155882415	200.446721754132	1742.51351921228	1349.33192757744	142.559229858837	1791.58776463202	894.748010336686	189.153729188241	1923.09317874549	1347.66520495995	131.04072345119	2445.82892204303	907.316430084134	144.982272722244	2043.15765670532	1058.30058247808	149	1929.0654171295
833.443202091444	156.554579606586	1388.51062966012	1370.57556982944	240.000074469053	1992.17705779172	846.162777512213	184.05371234212	1471.9341969363	1434.68661181799	154.840467059898	1946.21568722727	1019.00152522331	173.26709481052	1878.54895068712	1180.3477064781	144.004033420068	1734.69772811734	1072.8359890063	144.061156926116	2089.28838211134	1211.26859977871	182.265715836247	1890.71328859622	828.595859297132	157.8760898261	1339.92906934938	1766.4139125281	197.593953117203	2574.46642069526	1014.41996878595	200.658722989235	1741.2234228168	1349.35287488475	142.673127237637	1789.65446144494	893.401162221332	189.346790387654	1918.36124655473	1345.42653776722	131.061156926116	2439.82141689674	905.113655511431	144.994022524852	2036.34695644454	1056.82171363012	149.001327222897	1925.35946880427
833.808697208511	156.67180001474	1390.44116077112	1371.03541293555	240.039396228293	1994.14453383856	846.472543441715	184.26297157719	1473.41061961913	1435.25693692283	154.91681327729	1948.48280735059	1019.54581921516	173.512546087954	1880.14341627629	1181.37631439413	144.087598100814	1737.59415529097	1073.2520123218	144.142256095084	2090.85629833239	1211.94179132352	182.50192706728	1892.66571272383	828.937244146076	158.000173723287	1340.07859580545	1766.9371769043	197.812037585691	2573.11030753545	1014.24537836873	200.847660351893	1739.85482494491	1349.4505525828	142.774209448794	1787.51075368714	891.991845888582	189.519050582022	1913.43995995439	1342.92323687915	131.082403674188	2433.05053868514	902.862047263538	144.998672777103	2029.35107875894	1055.05297544554	149.004650252251	1920.85727980327
834.046054328475	156.774209448794	1392.14358170818	1371.30741906603	240.078884203872	1995.70650525726	846.705751703383	184.446026618988	1474.65346014322	1435.72057647739	154.983599945141	1950.47822149027	1020.05880188665	173.749115421794	1881.45637353653	1182.3533365453	144.160911914376	1740.30041005177	1073.73026521395	144.226741810419	2092.38626679697	1212.47385412063	182.743513910331	1894.24822526199	829.243941087624	158.10258315734	1340.20095836302	1767.51856322569	198.010448204677	2571.64891365393	1014.0934509637	201.012203142635	1738.57486050011	1349.64123431127	142.856613122982	1785.39390414422	890.640438306924	189.670472791843	1908.67881010646	1340.35432518748	131.101082211157	2425.95684430379	900.730082797666	145	2022.63186378817	1053.14648614012	149.013077025505	1915.8801824594
834.155635970694	156.857940345879	1393.52518614156	1371.42574020133	240.129887649048	1996.79654249248	846.8678299205	184.601861341048	1475.5937575516	1436.05651114451	155.041680222998	1952.00021216841	1020.52870651265	173.971308667932	1882.42406945591	1183.20897601147	144.227179825302	1742.58706058761	1074.29745277377	144.314581485154	2093.86214606271	1212.84313112316	182.982272722244	1895.34506382201	829.525695544685	158.178123342496	1340.37712273588	1768.12576480416	198.185222892853	2570.33166703388	1013.97688438681	201.153729188241	1737.53245267425	1349.90110110652	142.917770049098	1783.54672773602	889.443228407959	189.805088221107	1904.39561793047	1337.90146689089	131.113897378801	2419.03803204817	898.839972185752	145.001327222897	2016.58912628683	1051.24516634137	149.029756697104	1910.79550291174
834.158691535123	156.922420301349	1394.56055943751	1371.43868964786	240.201039439814	1997.41721370526	846.97372742127	184.731751689869	1476.20686835779	1436.29160996252	155.093703044059	1952.9610379017	1020.94537696698	174.172841002492	1883.0227859233	1183.89945967089	144.288694854226	1744.28770088212	1074.94855302674	144.404609028846	2095.24918662912	1213.05137365239	183.210329337706	1895.89848949479	829.785702955762	158.227706844223	1340.66987366306	1768.69568471866	198.335194245588	2569.36273923826	1013.88595559717	201.276136516073	1736.82633707251	1350.16899333288	142.958493500288	1782.14847941786	888.462755117243	189.925766048379	1900.83957132003	1335.70769738907	131.11978694057	2412.77187402017	897.264183419406	145.005977475148	2011.52253218777	1049.46646336244	149.058450728946	1905.9714902872
834.093241600733	156.971570525793	1395.28095705003	1371.4057072074	240.300117978427	1997.6216296354	847.046366951109	184.840016627161	1476.50733667136	1436.48903629943	155.143654075904	1953.38616743771	1021.30086156792	174.348796493933	1883.27516546813	1184.41338578432	144.347402412663	1745.32207377329	1075.65108473136	144.493510593848	2096.50976812539	1213.12597041953	183.420493234069	1895.92368054744	830.02351466342	158.25613631843	1341.11354975573	1769.15254806479	198.462543908156	2568.84936937022	1013.79502138981	201.385240918956	1736.48530081938	1350.36283020288	142.982272722244	1781.26939626113	887.724835493874	190.038704927057	1898.16802191182	1333.85796907304	131.119874853948	2407.53042429181	896.020842883406	145.017727277756	2007.61001309896	1047.88914680654	149.102663425828	1901.72183073567
834.004021941269	157.010702196451	1395.77241458764	1371.38257434305	240.432457694929	1997.51948178922	847.108976868751	184.934192821633	1476.55571507604	1436.7188342893	155.196039416324	1953.40973482365	1021.59871306145	174.495678444903	1883.2524020019	1184.7800464678	144.404609028846	1745.71927118118	1076.36716842455	144.577908395805	2097.62989620832	1213.12563865247	183.608624564491	1895.52043491327	830.242882819338	158.272103096006	1341.7153085185	1769.44310896516	198.573346056932	2568.79652114088	1013.67921729691	201.488575987256	1736.47549614439	1350.4160191317	142.994022524852	1780.87797126006	887.226340762668	190.149538075452	1896.44360731741	1332.38092448933	131.118809488912	2403.54575842953	895.090287100806	145.041506499712	2004.91483211111	1046.5507241166	149.16463362509	1898.27441438166
833.930227519139	157.04649577865	1396.14623771939	1371.40547643746	240.601884295937	1997.23913654246	847.177248066943	185.022451999059	1476.43927553719	1437.03123947652	155.255957032922	1953.22586966118	1021.85083279956	174.614269423854	1883.07489467129	1185.0582609064	144.462016889236	1745.62351562934	1077.06331137515	144.654448700669	2098.64625279509	1213.12848169307	183.774209448794	1894.87358506588	830.46203972969	158.286149311173	1342.47043685778	1769.56887622525	198.678489780486	2569.15304485047	1013.53025500697	201.596174019676	1736.7327213259	1350.314240853	142.998672777103	1780.88972315098	886.946347457104	190.265715836247	1895.64499069752	1331.26679090732	131.1239101739	2400.89238762931	894.433386777365	145.082229950902	2003.39794246035	1045.45667266339	149.244469088175	1895.74042878176
833.897139530686	157.084936148072	1396.50728051457	1371.48619499346	240.810476626135	1996.90259654586	847.257818317105	185.114957402811	1476.25529563977	1437.43858154071	155.326872762363	1953.03222454254	1022.08273655337	174.709719193501	1882.89938036903	1185.32686667428	144.520605604248	1745.27272781124	1077.73025218606	144.721468996109	2099.65667422284	1213.22310408329	183.922443019025	1894.23228869696	830.709970013754	158.308194225395	1343.37589454584	1769.59912221775	198.789670662294	2569.86859475505	1013.36633461153	201.71702579143	1737.19623948056	1350.10972534666	143	1781.23029740348	886.858140786102	190.395222714436	1895.69182871777	1330.48463042102	131.143386877018	2399.52311815528	894.004972664384	145.143386877018	2002.95055196828	1044.58877991133	149.339687930007	1894.1257642777
833.911233077139	157.127777377629	1396.93558025983	1371.60911929225	241.058040944334	1996.60466391552	847.346732047584	185.218691000849	1476.09660498662	1437.91415043699	155.409276436551	1952.98371682725	1022.3242383451	174.790626659107	1882.8955588711	1185.6595603475	144.581274773058	1744.952747662	1078.38096802125	144.778876856499	2100.8036515194	1213.48419072583	184.061156926116	1893.86738753209	831.026201841607	158.346349465481	1344.44711316257	1769.66084771453	198.920071486097	2570.95283273831	1013.22799620874	201.860669497939	1737.84183525715	1349.91645042444	143	1781.89022121386	886.936542557285	190.545027850832	1896.47028757497	1330.00156006915	131.184110328208	2399.32232776645	893.765871443675	145.225790551206	2003.42597377405	1043.91673674202	149.445332480036	1893.35817806879
833.961085894883	157.175316162778	1397.47219489598	1371.73873844506	241.343473157735	1996.40166299631	847.430333105772	185.339949787868	1476.03771170414	1438.4009071906	155.503254290177	1953.16016297181	1022.60643989361	174.869158391966	1883.21723498928	1186.10951910293	144.644166006909	1744.93418618317	1079.03964940996	144.827651892254	2102.23620866833	1213.96082979615	184.200684106353	1894.02003200225	831.449130145585	158.40551782605	1345.71311995338	1769.90554428047	199.080492943393	2572.48317314683	1013.16777923461	202.035466973365	1738.6864699859	1349.8770037376	143.001327222897	1782.93094189436	887.163875337708	190.721671236507	1897.84604126793	1329.79932450274	131.249569773162	2400.14319497761	893.688376375957	145.326872762363	2004.65303174803	1043.41364014457	149.555994742861	1893.31514829667
834.028722213322	157.224730527196	1398.12352762362	1371.84200860451	241.665164562642	1996.32055523615	847.497445533776	185.480949417978	1476.12968074274	1438.84206361335	155.604603562277	1953.56632610176	1022.95145349373	174.957368517789	1883.96752340858	1186.69141948622	144.708222984919	1745.40160966551	1079.72559046601	144.870488314637	2104.05717570374	1214.66279321236	184.351979207216	1894.84627529159	832.005627614806	158.485511756851	1347.21403715176	1770.46237165204	199.279046853526	2574.58758017182	1013.23291333356	202.246863575992	1739.77854170571	1350.11538728599	143.004650252251	1784.46159299455	887.52459470622	190.929024257186	1899.68611223012	1329.86634411799	131.338622564971	2401.8426751813	893.74958505345	145.440770141163	2006.45929968258	1043.05638328706	149.664962322244	1893.86231695079
834.098000558358	157.273342405525	1398.87832368501	1371.90073187996	242.023183296204	1996.37449452409	847.542290169838	185.642787032635	1476.40395865365	1439.20414966591	155.709983485098	1954.16267897645	1023.3705131397	175.06563345508	1885.18557290863	1187.38322015965	144.771145218388	1746.41714761235	1080.44262623324	144.910496775454	2106.2996467873	1215.56200157881	184.523000092065	1896.3861036164	832.701153200241	158.582817377431	1348.98252817673	1771.39392244484	199.518153398852	2577.38355808675	1013.44772497887	202.496558917367	1741.17189623133	1350.69268468325	143.011749802608	1786.57868295128	888.003198057493	191.169545735202	1901.85859645079	1330.18917210926	131.445420393414	2404.27082371265	893.928959298698	145.560557081733	2008.6693926443	1042.82648095781	149.76860793733	1894.85864816916
834.163713220092	157.318708380821	1399.72623275237	1371.92809699656	242.41892746734	1996.58120280186	847.572720557872	185.822491589803	1476.87999299971	1439.49634583264	155.815715948506	1954.90673813553	1023.86825032279	175.201489872551	1886.84406642257	1188.1375387383	144.829764863447	1747.91571150399	1081.18429488078	144.951920099389	2108.92118401177	1216.60800061808	184.719016790713	1898.56204406149	833.517596083399	158.690068767097	1351.02648136924	1772.68091904416	199.79434363222	2580.91028088148	1013.81077733151	202.780986989975	1742.89222067092	1351.59071505661	143.023779221956	1789.3055072823	888.580356590795	191.442351355835	1904.23634549095	1330.74386096936	131.560557081733	2407.26360736407	894.203290956629	145.677777489888	2011.10857562027	1042.7078314176	149.863795849117	1896.16337204031
834.2369480904	157.360396331964	1400.67731742283	1371.96661532619	242.854098866387	1996.98135109038	847.610166445639	186.017727277756	1477.57542093383	1439.77446410295	155.919714104178	1955.79790371345	1024.44155349293	175.368379262075	1888.86656655907	1188.90125192676	144.882067301247	1749.74658471828	1081.93598094742	144.999455825625	2111.82782586299	1217.74043269872	184.941751511452	1901.21253026556	834.417176004151	158.798908808809	1353.31675095762	1774.22791058764	200.099340396474	2585.0863178247	1014.29465956345	203.092240846117	1744.91724412837	1352.71774038494	143.042050674087	1792.55367800908	889.228451852632	191.744667409941	1906.70367862617	1331.4797818445	131.673127237637	2410.63345946073	894.543562394534	145.787286474299	2013.61134734968	1042.67912311681	149.951137050867	1897.63823696813
834.343212880514	157.400046689974	1401.77062905346	1372.08422218276	243.332435645725	1997.63983648369	847.689214612583	186.226319607954	1478.51092977623	1440.12991846556	156.02308792072	1956.90157367778	1025.09031235644	175.566355271373	1891.15631167139	1189.64296127205	144.928420494173	1751.74056142917	1082.69278339783	145.058450728946	2114.90680418832	1218.91507387862	185.189289637206	1904.14558716785	835.350456332615	158.902500776174	1355.7853546703	1775.89661273472	200.421641171458	2589.70211083434	1014.858047487	203.419645365001	1747.16973742037	1353.94376219391	143.065807178367	1796.12406122197	889.916198344991	192.070480148294	1909.15454008585	1332.32591241115	131.774209448794	2414.16109843849	894.918830073109	145.886369820086	2016.02624683779	1042.71350447002	150.032462894274	1899.14156104175
834.515687049995	157.440770141163	1403.06752593606	1372.35718949327	243.854523106679	1998.63709411651	847.848425615418	186.446747616311	1479.70752413314	1440.66556829556	156.127777377629	1958.33809561099	1025.81549150121	175.792325108087	1893.61888272977	1190.36160966903	144.971026351418	1753.77109778915	1083.45806771924	145.13163707441	2118.05469427544	1220.10965389753	185.459824641816	1907.19132305024	836.268334909297	158.997467526116	1358.33432639761	1777.55321645366	200.750020442226	2594.46258969424	1015.4595408107	203.75334347158	1749.53055854377	1355.14446893591	143.095480699693	1799.7490253035	890.607465286247	192.411796492582	1911.49497239362	1333.19457331488	131.857940345879	2417.60708771444	895.297126968506	145.976220778044	2018.22591618019	1042.77793611526	150.11109770603	1900.5350720999
834.790676659102	157.486055931226	1404.63059932641	1372.85778831962	244.420852515873	2000.04519726477	848.124986790689	186.678837513898	1481.17328027431	1441.47277294492	156.238491613027	1960.239623388	1026.61284821231	176.041506499712	1896.16974874664	1191.08462757784	145.016400054859	1755.78841158704	1084.23683589419	145.221140298956	2121.17959598111	1221.32208766316	185.750274434001	1910.23180376797	837.128538271151	159.084137981923	1360.85221661071	1779.09755803118	201.074501150508	2599.06485298451	1016.0632506934	204.086250953116	1751.86588659525	1356.23450431643	143.13083890826	1803.16592820209	891.265492284537	192.760443021937	1913.63492224891	1333.9998408206	131.922420301349	2420.72338419386	895.648965196365	146.061156926116	2020.10330980513	1042.83734258864	150.19066861148	1901.68538995911
835.19163605949	157.53852145688	1406.49448627771	1373.63049010001	245.025360436627	2001.89591646976	848.539733607297	186.922697010799	1482.883355869	1442.59611020549	156.357489676815	1962.6924118773	1027.47004662561	176.308959343467	1898.73241988896	1191.85386501577	145.070480148294	1757.81232518939	1085.02668965207	145.325545539466	2124.19653828302	1222.56104983551	186.058450728946	1913.20640365282	837.899043026743	159.166370632599	1363.23464406943	1780.48458992154	201.390562813679	2603.27493700201	1016.64398547283	204.414342035635	1754.05519614439	1357.1831581197	143.172348107746	1806.18648797321	891.858773897209	193.10812505134	1915.49880416689	1334.6784255749	131.970243302896	2423.29801077508	895.952753650719	146.146906347334	2021.58623806741	1042.8668098924	150.27388075164	1902.48490823676
