Light	Light	Light	Light	Light	Light	Light	Light	Light	Light	Light	Light	Light	Light	Light	Light	Light	Light	Light	Light	Light	Light	Light	Light	Light	Light	Light	Light	Light	Light	Light	Light	Light	Light	Light	Light	Light	Light	Light	Light	Light	Light	Light	Light	Light	Light	Light	Light
Optode1-730nm	Optode1-Ambient	Optode1-850nm	Optode2-730nm	Optode2-Ambient	Optode2-850nm	Optode3-730nm	Optode3-Ambient	Optode3-850nm	Optode4-730nm	Optode4-Ambient	Optode4-850nm	Optode5-730nm	Optode5-Ambient	Optode5-850nm	Optode6-730nm	Optode6-Ambient	Optode6-850nm	Optode7-730nm	Optode7-Ambient	Optode7-850nm	Optode8-730nm	Optode8-Ambient	Optode8-850nm	Optode9-730nm	Optode9-Ambient	Optode9-850nm	Optode10-730nm	Optode10-Ambient	Optode10-850nm	Optode11-730nm	Optode11-Ambient	Optode11-850nm	Optode12-730nm	Optode12-Ambient	Optode12-850nm	Optode13-730nm	Optode13-Ambient	Optode13-850nm	Optode14-730nm	Optode14-Ambient	Optode14-850nm	Optode15-730nm	Optode15-Ambient	Optode15-850nm	Optode16-730nm	Optode16-Ambient	Optode16-850nm
537.404384703042	142.129511685363	874.369828695971	854.385395160877	259.235495040884	1063.83875030848	590.248113530352	151.725857390499	833.561755623517	1237.30444163299	165.156528861012	1515.28308085719	1199.64884925632	140.90908637678	2037.07346613494	1107.76500535563	153.624256026508	1548.06813439317	482.085780917479	135.986922974495	703.475319318519	1118.28771924227	173.010966754086	1450.88992980411	633.043309117025	149.451986938681	843.076346229829	950.365167385682	187.856613122982	1159.46091870278	1149.69745102688	188.137399891306	1834.21493454666	1267.3664334393	148.880392344938	1529.40326939534	936.36056928969	176.958493500288	1754.94983116525	1190.86960368121	137.475672685038	2035.42980910191	795.656377138599	216.629685438362	1477.36140323936	1048.84932287671	140.998672777103	1614.16267269995
536.973826167448	142.155948052887	873.61524512742	854.436680585181	259.664145949437	1063.92015997064	589.90265266946	151.787830648674	832.986102520397	1236.95175104282	165.231574047952	1515.26887225837	1198.71598164863	140.946199523305	2034.56368395449	1106.68150128642	153.702790459141	1546.05735652469	481.686597948496	135.995349747749	702.475095912261	1116.50294921841	173.067208870317	1447.65910551883	632.64860716313	149.427592784427	842.204848346509	949.742673245864	187.92819262881	1157.57827879778	1149.45061775435	188.171106694758	1833.13632341687	1266.80912745927	148.929519851706	1527.55527961734	935.820092466963	176.982272722244	1753.35354233559	1190.50568970964	137.529740360619	2034.24531556589	795.441201038497	216.708409126059	1476.40217788938	1049.08754416276	141	1614.71464342419
536.496309456559	142.179616643789	872.654742602932	854.339080932606	260.012182887519	1063.71840223725	589.47531748952	151.82791909114	832.19816165482	1236.3753814573	165.275786744834	1514.85867158067	1197.68611106874	140.971570525793	2031.81018732655	1105.45357602443	153.775007614943	1543.73384674504	481.208392789574	135.998672777103	701.261964557219	1114.6250734254	173.117149650231	1444.17236589473	632.201544323702	149.382319412218	841.306598240259	949.088850344796	187.982272722244	1155.7530715809	1149.08392186849	188.181106249117	1832.03272771082	1266.12449192337	148.963143752539	1525.63584823532	935.202031751595	176.994022524852	1751.51350288905	1190.03323137287	137.548418897587	2032.58106341988	795.134578064436	216.775536671691	1475.15482274324	1049.37430663886	141	1615.14666550812
535.982278500878	142.197628275886	871.544971758393	854.084132823634	260.257590817053	1063.25062591505	588.986151266829	151.844583703634	831.240141209577	1235.61048444136	165.291405788998	1514.12608812496	1196.58827127873	140.986922974495	2028.96586852082	1104.11118220885	153.837384899043	1541.19846380555	480.672515212628	136	699.911088801656	1112.70150382495	173.160911914376	1440.54599128978	631.745679176047	149.326089713841	840.500131518452	948.427317014032	188.022996173434	1154.12421507024	1148.63717691245	188.176551638389	1831.0739533174	1265.33134865777	148.983599945141	1523.78528234876	934.516016016685	176.998672777103	1749.51105715876	1189.42960356306	137.531067583516	2030.47727388869	794.727065103146	216.827308709708	1473.66735361989	1049.67580294856	141	1615.44668896804
535.44191413021	142.206814674564	870.333843332654	853.667373421105	260.387888250712	1062.54166524199	588.460514043167	151.840016627161	830.163343638466	1234.70073150956	165.283240873605	1513.15591143511	1195.44822849885	140.995349747749	2026.14460686201	1102.68837843595	153.886164672399	1538.5344064012	480.101867959452	135.998672777103	698.500869698201	1110.77537129282	173.196301052989	1436.86246133727	631.317872978399	149.270547422464	839.862592420444	947.767435003734	188.056506673866	1152.74064581623	1148.15002648144	188.167339822261	1830.35048591699	1264.43995397233	148.994022524852	1522.05253129813	933.755039835767	177	1747.42229524116	1188.65100275492	137.482977383082	2027.99735063174	794.209681220242	216.863714524432	1472.01267371155	1049.93229195032	141	1615.6054469589
534.890170909858	142.209378078494	869.075231993979	853.099192103075	260.40352874972	1061.63352521561	587.930151894618	151.821360807868	829.03926019615	1233.70323326125	165.257457979105	1512.04942652506	1194.30437054819	140.998672777103	2023.45094208569	1101.24391534591	153.917770049098	1535.84657285196	479.525637382404	135.995349747749	697.108466121492	1108.91094198763	173.21954192883	1433.22406870403	630.940705419902	149.224463328309	839.41983754674	947.115376072328	188.085726703542	1151.57928276579	1147.65914893295	188.16128787806	1829.87620821841	1263.46259625233	148.998672777103	1520.41657950946	932.918467557654	177	1745.33444600753	1187.66868743989	137.41566369631	2025.25296083936	793.595630115243	216.892161154093	1470.30739240294	1050.08655224287	141	1615.63167173465
534.349166663819	142.208046117996	867.83844767855	852.407030008385	260.316295537773	1060.59152385153	587.427880100486	151.796394248967	827.952857340017	1232.68013002191	165.220340094979	1510.92205001503	1193.21450774561	141	2021.00138131465	1099.86730386222	153.927614727975	1533.28549573549	478.974779486533	135.988250197392	695.809762782697	1107.2020310304	173.227794757601	1429.7896854143	630.623854741106	149.19373474177	839.148274682986	946.493649883838	188.112832013765	1150.57844481393	1147.20335018523	188.162855969456	1829.6054852114	1262.43115233534	149	1518.82209358095	932.02627021454	177	1743.35266515804	1186.49262337395	137.344674509172	2022.40891696587	792.92999529704	216.928936343808	1468.71281508008	1050.10519912179	141	1615.56422997363
533.852503526349	142.207094083788	866.712429088854	851.638810052753	260.148441114445	1059.50718827771	586.985536730487	151.773153373126	826.999181985251	1231.69568904877	165.17707282905	1509.89534505208	1192.25503037615	141	2018.93269978967	1098.67283971663	153.913119796848	1531.04845460359	478.482544298171	135.976220778044	694.674340425596	1105.76596876335	173.21954192883	1426.77928113842	630.364513909438	149.180510323365	838.994693354952	945.94280610619	188.137676600757	1149.67925138551	1146.82300572129	188.174532848218	1829.46689973939	1261.40116889813	149	1517.22661852108	931.13225818169	177	1741.60495840395	1185.19035925654	137.284315749205	2019.68500979789	792.289420241081	216.992904397985	1467.42471256726	1049.99612723049	141	1615.48262537586
533.4363471916	142.209797581185	865.793730047809	850.853457741643	259.925747041832	1058.48292797988	586.625603366579	151.75580518754	826.259473162317	1230.803679654	165.130633760573	1509.0744842163	1191.51147617064	141	2017.3835234872	1097.77841552395	153.874414869791	1529.34464905214	478.079971723908	135.95927654881	693.762633775989	1104.71814592593	173.196301052989	1424.42935500792	630.155417929312	149.181560698869	838.900571279949	945.517414819025	188.157855945966	1148.85076327592	1146.55505286644	188.194712193427	1829.39721844096	1260.44436684491	148.998672777103	1515.62872217572	930.313687131194	177	1740.21804085443	1183.87459300254	137.243940031427	2017.31258593663	791.765075503772	217.099771354456	1466.63042689821	1049.80608168789	141	1615.48804482089
533.134115383149	142.218607825072	865.160577716974	850.111703369829	259.672928945582	1057.60829567091	586.359434980464	151.744929046606	825.780060270753	1230.03966469572	165.082403674188	1508.5161328382	1191.0473794567	141	2016.45301765359	1097.26392818001	153.813605677087	1528.32917381576	477.788119213302	135.938843073884	693.113370609387	1104.1241425564	173.160911914376	1422.91296196705	629.988656226032	149.192781582672	838.821879297854	945.264094246946	188.169076829769	1148.09165664259	1146.42591178428	188.220428008357	1829.3543023975	1259.6313301225	148.994022524852	1514.06714710512	929.658354247852	176.998672777103	1739.28540384596	1182.68204377098	137.225790551206	2015.48097661407	791.440615395646	217.252717228137	1466.45842698275	1049.61091497637	141	1615.67181684732
532.963773392313	142.23269656789	864.847539952646	849.457949039941	259.40837141612	1056.93262956889	586.181198332034	151.739196273865	825.553557561505	1229.40573560618	165.030278153803	1508.20521589209	1190.88683471026	141	2016.13642730041	1097.13970694197	153.734284163753	1528.02161281986	477.613743940341	135.917596325812	692.730394299504	1103.96684693293	173.117149650231	1422.24514463602	629.858940752426	149.208592330198	838.73360931255	945.19550908223	188.164431384692	1147.40609316647	1146.43851753581	188.244642811461	1829.30702287527	1259.00363641954	148.982272722244	1512.59213928776	929.227741990822	176.994022524852	1738.82967593825	1181.7224330841	137.224992385057	2014.27811896186	791.357592702874	217.437922965536	1466.92689773296	1049.47767833859	141	1616.0790422943
532.920019597679	142.250101529684	864.818310842525	848.904727484299	259.13960164929	1056.43990458598	586.067431035516	151.734553262524	825.511444155712	1228.86765869308	164.971570525793	1508.03508831719	1190.9938958517	140.998672777103	2016.30295162114	1097.32435495338	153.641633533025	1528.27082404332	477.545573273776	135.898917788843	692.577492329307	1104.12824844147	173.067208870317	1422.24213364058	629.763116741217	149.224209336535	838.63139729182	945.276887402436	188.137329133383	1146.78501139353	1146.56920006296	188.261239307283	1829.22718315705	1258.56239589211	148.959820723185	1511.24111958758	929.04010803644	176.982272722244	1738.78435925811	1181.05342961275	137.232706867713	2013.65845749342	791.498320642608	217.624316039881	1467.9185793788	1049.44659620011	141	1616.68019786524
532.97088220144	142.267100372742	864.96515585955	848.429010842573	258.864917924327	1056.04433923214	585.981581421008	151.72733479917	825.534461571189	1228.35766277761	164.904171566894	1507.82134232594	1191.27613226845	140.994022524852	2016.70056068381	1097.65561473527	153.540525129423	1528.76360357458	477.553990536466	135.8861026212	692.579114136774	1104.40563392893	173.010966754086	1422.53824700789	629.699841212113	149.236211231033	838.521628974609	945.423241001762	188.081074551407	1146.18818739194	1146.76766731859	188.263059490568	1829.07469562199	1258.26261805599	148.923747524246	1510.01143350071	929.061280167396	176.958493500288	1739.00834785363	1180.6621305227	137.238334571621	2013.46458606346	791.78603951989	217.76919991474	1469.20290540218	1049.51631713711	141	1617.38298350446
533.067651040158	142.280268011399	865.128488807252	847.978116391212	258.573786841163	1055.60616100988	585.885412109222	151.713850688827	825.482750760605	1227.79711199683	164.826682702592	1507.34252454794	1191.60354485428	140.982272722244	2016.99534685963	1097.92704845542	153.434792666016	1529.08806772333	477.598551756019	135.88021305943	692.631386931673	1104.56339482668	172.946199523305	1422.66818828514	629.665681468474	149.241586843051	838.410866639149	945.520959194766	187.992017069889	1145.54873359538	1146.96534544093	188.244651073457	1828.79603524441	1258.02450474934	148.874340400738	1508.86037435745	929.211987431177	176.917770049098	1739.3219069029	1180.47381364927	137.233684319371	2013.48034104943	792.101982034677	217.830090431228	1470.48652714094	1049.64562659758	141	1618.05798834384
533.158258446653	142.285349107197	865.142047431813	847.487550007196	258.251209356729	1054.97177229935	585.751536446614	151.691040656533	825.236213326463	1227.12079091465	164.738934416004	1506.40266876525	1191.84953092843	140.958493500288	2016.87991956032	1097.95227385663	153.326522991124	1528.86288111017	477.638232086276	135.881452368949	692.631928514444	1104.40886391935	172.869690148487	1422.21573154923	629.655602200279	149.238758811913	838.3025425104	945.462693580462	187.87116259836	1144.80580088984	1147.0960832584	188.202335841735	1828.33847123527	1257.76263894623	148.814388725609	1507.73104011167	929.396117098514	176.856613122982	1739.56418107438	1180.3895733937	137.214979589957	2013.51207184206	792.319932043809	217.776289954533	1471.49452203396	1049.77816931185	141	1618.58993979602
533.202116886171	142.281359172971	864.88603812251	846.900047997032	257.88363029863	1054.02365506859	585.571089166709	151.658310701315	824.736337127746	1226.30015230295	164.642960755922	1504.90313707821	1191.92711212349	140.919097271995	2016.16890647928	1097.62068737994	153.217104979003	1527.85904424141	477.641817507342	135.887167986235	692.507485428554	1103.85379768739	172.778859701044	1420.95412040298	629.663654860941	149.226729392565	838.203232950337	945.183191763232	187.724802325286	1143.94867269885	1147.1127253958	188.135815769345	1827.68875599752	1257.41436203354	148.749379713391	1506.60189571068	929.533311908167	176.774209448794	1739.65170049276	1180.32204684302	137.183485885345	2013.46370157765	792.346003788504	217.598710786412	1472.05213621305	1049.86765161306	141	1618.93096730836
533.190700503188	142.26797160068	864.328776248642	846.19252866163	257.461014444861	1052.72310672498	585.366023117617	151.617156476151	824.008589877428	1225.37428798287	164.54185235232	1502.886885103	1191.81874482251	140.861263375233	2014.88441335462	1096.94328572116	153.105732463407	1526.09777793205	477.597744696411	135.893817103856	692.239523659487	1102.96035021479	172.674454460534	1418.9513586551	629.687802435902	149.205513644112	838.125692607816	944.688416794455	187.56255288819	1143.04260278622	1147.00720305882	188.045954511565	1826.8920306208	1256.96775693024	148.684889458099	1505.51122344456	929.582995035703	176.673127237637	1739.61320311489	1180.22771861647	137.143560600305	2013.38168419064	792.143845250362	217.310523210312	1472.13786301423	1049.89932033916	141	1619.13241797923
533.149214910808	142.250101529684	863.558881044014	845.382790731419	256.978205977892	1051.1435986152	585.183198093444	151.572306884342	823.177258129944	1224.44897849437	164.440770141163	1500.57287304434	1191.5847046079	140.785959251402	2013.28370796723	1096.05834047966	152.99227309949	1523.8782014972	477.517394632259	135.898119622694	691.876503688443	1101.93642205697	172.559229858837	1416.59184969727	629.734925874218	149.176381527814	838.101274547179	944.062451240123	187.396194603872	1142.24094051235	1146.81532770615	187.935164711069	1826.06907376522	1256.47342715213	148.625054192658	1504.58119545719	929.559893186982	176.559229858837	1739.59152923828	1180.12223372378	137.101880377306	2013.44611245804	791.747018173479	216.946538549993	1471.89290386044	1049.90211549076	141	1619.34720003605
533.131921887161	142.231825339952	862.769382293296	844.525648975638	256.434240654379	1049.45983502767	585.08313094452	151.52849340621	822.438176102016	1223.67554366053	164.342923045983	1498.32109385106	1191.35081914905	140.696906459593	2011.81765143098	1095.20414405275	152.876872874622	1521.72385829218	477.432190633985	135.898119622694	691.525007872939	1101.09418105392	172.439442918267	1414.50547440454	629.823684330274	149.141805662347	838.178662563316	943.454405152018	187.235971556997	1141.75669254919	1146.61801515936	187.80562209566	1825.40259007986	1256.04315499442	148.571515573824	1503.99779527652	929.523350500357	176.439442918267	1739.80552615467	1180.06866607123	137.064502673146	2013.92128081289	791.245588104472	216.551410559725	1471.58431308756	1049.93710346587	141	1619.79323487746
533.206698202813	142.220171109293	862.215902780567	843.701935438704	255.83079809866	1047.91350418293	585.127378589364	151.491921734286	822.014691517351	1223.22548293511	164.251306780671	1496.56476562326	1191.26948180426	140.599953310026	2011.03802274337	1094.65783252283	152.760551615164	1520.26662363338	477.384205364441	135.892489880959	691.328010569232	1100.76483171331	172.320895287215	1413.42358510746	629.980496618426	149.106182896144	838.418364766601	943.039526806288	187.088276332881	1141.80919168214	1146.51791079141	187.660067367586	1825.10197778218	1255.82125640064	148.523173815352	1503.9661302351	929.559151145724	176.319568064318	1740.48769650432	1180.15765239894	137.035529024564	2015.07448443829	790.761763962947	216.168911861999	1471.53030773141	1050.08013271366	141	1620.69681585344
533.43521956875	142.219098085686	862.154728751296	842.992427069546	255.167547366475	1046.75466194415	585.357466146812	151.46454936312	822.102844567618	1223.24007992974	164.165584884303	1495.71424576162	1191.48086990317	140.50192706728	2011.44424481166	1094.66328571421	152.645493229806	1520.07647993379	477.41587960313	135.882517733985	691.42709603307	1101.21437840547	172.208063273451	1413.9755347992	630.233515792995	149.071579505827	838.869816870801	942.971693792724	186.951704651879	1142.55188700707	1146.6138178613	187.498386541958	1825.33784791719	1255.94599508446	148.475498961751	1504.63940313188	929.747557828859	176.202085798303	1741.81322192349	1180.47028806829	137.015072831962	2017.09336918848	790.411039835142	215.830805146664	1472.01600870121	1050.39516883703	141	1622.22715701223
533.85285363412	142.23035762768	862.76761023741	842.45533941803	254.443457983103	1046.17316371468	585.783011135801	151.446654140711	822.814805647641	1223.79458210994	164.081076451291	1496.04757325524	1192.06556430786	140.409276436551	2013.3442079146	1095.36081213267	152.53492361796	1521.50673457547	477.55529511128	135.868375343444	691.920557119863	1102.55744508177	172.100553154409	1416.50619351263	630.59808883798	149.04072345119	839.551012265786	943.335801683252	186.818706362074	1144.01303894569	1146.96723041101	187.320621011501	1826.18616430253	1256.50385834698	148.423834173925	1506.06037538971	930.135888277674	176.08415309955	1743.83006783003	1181.05474686789	137	2020.00503182861	790.275757722203	215.550285577226	1473.20849525995	1050.91407939516	140.998672777103	1624.43450914782
534.456034983294	142.251825537596	864.109041109304	842.109695028377	253.655197719484	1046.2469962498	586.3739843179	151.434904338103	824.139997839682	1224.86762901143	163.990676777823	1497.63142886321	1193.02359747513	140.326872762363	2016.75014953729	1096.74685628886	152.431278002873	1524.58531259253	477.809653774076	135.850456362326	692.834353900208	1104.71751235325	171.992695301955	1420.95483155432	631.065337808676	149.013356642245	840.425232287302	944.115195158677	186.675405719747	1146.06257912581	1147.57650339885	187.125388452033	1827.58474883807	1257.49552937105	148.361868781837	1508.1227926796	930.719698181864	175.958493500288	1746.42697219447	1181.89971087288	136.983599945141	2023.64240787865	790.380843780119	215.319394341032	1475.1070972426	1051.62241440555	140.994022524852	1627.22347170108
535.198827781867	142.279075178266	866.083037213951	841.928896540271	252.799116353023	1046.91913488601	587.062001887895	151.423042863408	825.940318544114	1226.34073934247	163.885586771564	1500.29420861371	1194.2610798565	140.257284255818	2021.34197656119	1098.66167966874	152.335037677756	1528.98278780612	478.15873641843	135.827651892254	694.101787485621	1107.42090143309	171.873087646894	1426.82445785894	631.591644287691	148.986643357755	841.394509810244	945.181062783243	186.504633915766	1148.4205084715	1148.36447601078	186.910151741816	1829.32725934031	1258.82028748764	148.285353844798	1510.57455363085	931.438012778799	175.814562448895	1749.33650900806	1182.93522258688	136.958493500288	2027.65892791034	790.69024279719	215.112570155904	1477.53594442942	1052.46314957105	140.982272722244	1630.36161240417
536.000676983498	142.304478076902	868.448423258465	841.847152339519	251.873788389101	1048.00225907819	587.753559415732	151.403714308237	827.964528130291	1228.01657499219	163.757809393935	1503.64198765906	1195.60797390031	140.200689668575	2026.51009789087	1100.8198356086	152.242792094038	1534.06837344175	478.556575413043	135.796254363015	695.572001727373	1110.24417600109	171.726725473934	1433.25934293173	632.104365978848	148.957949325913	842.304088774964	946.31966344207	186.292889579727	1150.69600550243	1149.19278646171	186.674768069772	1831.08462154882	1260.29363841097	148.19349678056	1513.05021435248	932.186420295948	175.642572374384	1752.18620996878	1184.04574745336	136.917770049098	2031.59268167359	791.118815051134	214.89417011265	1480.18617817888	1053.35116467487	140.958493500288	1633.53513799611
536.762691738367	142.321948234397	870.873397559728	841.774490895825	250.882303075733	1049.22384779927	588.348013138605	151.368706474333	829.901290929183	1229.65951999336	163.601319866447	1507.14617012872	1196.85345435824	140.155403878512	2031.47296334224	1102.87127750457	152.148643354843	1539.04246667155	478.941878787178	135.752962700722	697.033779429899	1112.69882522915	171.537640984415	1439.2171193308	632.508353230977	148.922443019025	842.966385374929	947.271927834776	186.030086213227	1152.45915318403	1149.88565651955	186.419183166627	1832.46356768176	1261.68254680422	148.087598100814	1515.13820763122	932.836361794349	175.434259660926	1754.56527621134	1185.09025335893	136.856613122982	2034.95527656376	791.55176700876	214.628288198007	1482.67889855301	1054.19214713572	140.917770049098	1636.41122419537
537.387207831922	142.325274392237	873.001474987469	841.62250418694	249.833785160239	1050.28778183567	588.758024843712	151.309660085674	831.440622944785	1231.04540878054	163.415842981819	1510.25383227052	1197.78855467408	140.117482266015	2035.44172553651	1104.47479671537	152.042631482211	1543.1071651353	479.246014737731	135.694373985709	698.259479737357	1114.32940101516	171.292106531205	1443.68000277076	632.704878731257	148.8760898261	843.192404064589	947.788494308623	185.714975671326	1153.31852640774	1150.26436684109	186.144511859517	1833.07979524701	1262.75043407954	147.97277577678	1516.4545895083	933.264404098555	175.187527567408	1756.10913847724	1185.93281903274	136.774209448794	2037.33572286987	791.873937256713	214.288600268001	1484.654350313	1054.90608640381	140.857940345879	1638.71518598498
537.797045108321	142.311525654686	874.524020247115	841.319532450411	248.745108332114	1050.93723291474	588.926015319083	151.221130788391	832.333505618129	1232.00019340168	163.203229787349	1512.49727142719	1198.24502401695	140.082403674188	2037.76849543894	1105.36607193137	151.915237575214	1545.62374873156	479.408435860286	135.619588618803	699.046634270772	1114.80203859918	170.98338528689	1445.85594104539	632.611864011551	148.816687837942	842.829449379341	947.682074366818	185.353540166772	1152.99775847129	1150.18718240573	185.852761036881	1832.63168228006	1263.30889328421	147.855562609536	1516.71781284191	933.378922296553	174.90602024649	1756.56222718993	1186.47467780581	136.673127237637	2038.47012605463	791.994344657341	213.864680614433	1485.8370440161	1055.444961481	140.780186923941	1640.27656324207
537.950361433091	142.280698854946	875.245367605723	840.830092893788	247.639441285605	1051.00993009258	588.834615374694	151.10258315734	832.44297079979	1232.43352665732	162.971570525793	1513.59056195908	1198.13355558275	140.044756871257	2038.08359819177	1105.41149440933	151.759113899156	1546.23972444785	479.386129088203	135.530888298008	699.261214906211	1113.97567879431	170.614422516917	1445.33587891578	632.179437741023	148.742715744182	841.791649090078	946.862275822085	184.957166277391	1151.387036388	1149.57423998358	185.546152833331	1830.95864896181	1263.24863635369	147.741214797998	1515.79885109787	933.136867914102	174.600476804552	1755.83379149431	1186.66749938262	136.559229858837	2038.30607508087	791.863404061111	213.365106735529	1486.09456187872	1055.79670845509	140.689527292496	1641.06619118083
537.844880261684	142.237024504179	875.115335256848	840.157469040042	246.546704844968	1050.46639876997	588.506616978516	150.958493500288	831.76478194504	1232.34622254509	162.732547156245	1513.47162343112	1197.45210985955	139.999216951478	2036.35611578241	1104.62324693994	151.571791034706	1544.94277594413	479.162994882675	135.433582677428	698.859785531735	1111.91906198238	170.196828071909	1442.16171164268	631.404111175817	148.655749731121	840.085229642039	945.355784714176	184.54185235232	1148.56892713938	1148.42698980814	185.228056615462	1828.08157884367	1262.56377351857	147.633551723836	1513.75121357317	932.551846622886	174.284822088276	1754.00220090476	1186.52296088768	136.440770141163	2036.9946508272	791.478172293581	212.813605677087	1485.44629086955	1055.98342553867	140.594758883401	1641.1800859729
537.516161222861	142.186018359229	874.234785678519	839.342662243418	245.499420410733	1049.3907741037	587.99784675579	150.798786836899	830.425141791387	1231.81929186659	162.497893647212	1512.30064687845	1196.28785196756	139.942876493951	2032.87514972101	1103.15293577791	151.357218529586	1542.03291544894	478.752585201629	135.335037677756	697.895131310011	1108.89896269627	169.752011441509	1436.79504142061	630.33323363194	148.559229858837	837.812117367438	943.300230033256	184.125237396797	1144.80116433786	1146.82778690197	184.902769874945	1824.19265831352	1261.35071038789	147.533713629372	1510.79670411567	931.68835344913	173.976497487494	1751.30975156136	1186.10736672638	136.326872762363	2034.87475001346	790.880351183391	212.244919520912	1484.05740112287	1056.04884845361	140.505272814309	1640.8176099257
537.031465187501	142.134876927986	872.81851140787	838.454365923594	244.529695657246	1047.95456209058	587.385548965972	150.635482334591	828.641362279476	1230.99511139019	162.281325335636	1510.39633142528	1194.79949088857	139.874340400738	2028.18264773989	1101.25465485554	151.125647181409	1538.04586592933	478.197940636555	135.243141865278	696.504136522047	1105.32509907904	169.307222335959	1430.01657768988	629.060264035798	148.45814764768	835.158072541433	940.922312370069	183.724994265861	1140.47710638748	1144.93080410181	184.578284359489	1819.62981965165	1259.79286564319	147.44209736406	1507.29202686961	930.648397862291	173.689365987063	1748.10911926384	1185.525760101	136.225790551206	2032.39788519386	790.142598029061	211.697377413484	1482.19154556887	1056.04256727041	140.428753139669	1640.222118719
536.4724518868	142.089586400323	871.151205899067	837.574790534106	243.667310206803	1046.37910672169	586.753250203516	150.480949417978	826.679639291905	1230.04113717441	162.093308111037	1508.16175012483	1193.19221142995	139.795259755903	2022.96877717753	1099.23721436662	150.892080096347	1533.63927982952	477.565207333984	135.16463362509	694.883967514974	1101.67955249227	168.89137935414	1422.7766545321	627.711216498149	148.358366466975	832.36711332192	938.497468262521	183.358568707373	1136.06336335994	1142.93356394798	184.264588953863	1814.81915143026	1258.12878642882	147.358366466975	1503.66993496661	929.55794004651	173.434994906414	1744.80843759933	1184.90946401382	136.143386877018	2030.05519796511	789.356450173958	211.205898788094	1480.15892648441	1056.01297220905	140.369351151511	1639.63205722038
535.926112123071	142.053800476695	869.519420363185	836.786351068232	242.935680488844	1044.87595509848	586.178577210525	150.345927263016	824.796990818496	1229.1240277474	161.941033879829	1505.98331448241	1191.68055720589	139.711310707995	2017.93559572084	1097.40662393358	150.673865390414	1529.46181245619	476.933684020001	135.102663425828	693.256083688692	1098.43217986095	168.530291582998	1416.01853677668	626.425809243254	148.265715836247	829.699304275798	936.304602850488	183.040922991814	1132.02224868327	1141.04542379383	183.975637270146	1810.19947540522	1256.60941578454	147.283093342763	1500.36331805011	928.545478317246	173.219735907232	1741.80187216691	1184.39325197507	136.082229950902	2028.29324164476	788.615938210424	210.798117690663	1478.25688944419	1055.9955678041	140.326872762363	1639.23031558724
535.470027547199	142.028429474207	868.165705798647	836.156534381971	242.352127233676	1043.61163309381	585.720910087578	150.237745501501	823.200098430264	1228.37690358024	161.82794204603	1504.16316514299	1190.46304927922	139.62971000713	2013.6908645671	1096.02221469389	150.487986917137	1526.04855207398	476.385353256988	135.058450728946	691.830649588772	1095.97576420507	168.243732487213	1410.53167050982	625.334324767203	148.185067100016	827.390639370109	934.578352092053	182.784245198783	1128.74548881862	1139.45130774215	183.725794469837	1806.15633518088	1255.45229627399	147.216560804629	1497.73965103705	927.726653914707	173.046099438364	1739.40485112189	1184.09968342903	136.041506499712	2027.43511254192	788.004954916136	210.490990730189	1476.71677850978	1056.0124392926	140.297209540859	1639.10788100425
535.159240696606	142.013077025505	867.256117869489	835.726291103123	241.927757147372	1042.68773702598	585.413358490903	150.161114154774	822.024998833965	1227.87865537942	161.753882038892	1502.88134874715	1189.6873096873	139.560377796225	2010.67608520812	1095.25552710734	150.34952700182	1523.75917881451	475.989888939806	135.029756697104	690.780597832785	1094.56737495366	168.042070929202	1406.85695993692	624.538472230051	148.120934877959	825.623994011121	933.477339213753	182.597955041009	1126.51188144403	1138.287042122	183.530820639745	1802.98289330442	1254.81293744452	147.160860162999	1496.0612608694	927.190775666497	172.913667070884	1737.80579001035	1184.1225969552	136.017727277756	2027.62935537922	787.587893663787	210.290654357248	1475.66745224571	1056.07070870267	140.275190819082	1639.24876824964
535.024338281597	142.004650252251	866.866352169394	835.511387146633	241.666714281052	1042.13533350725	585.264960880102	150.119086198363	821.32589199846	1227.65380898985	161.715781674738	1502.18803709382	1189.43511879142	139.511939862379	2009.128018149	1095.17698936222	150.267123327631	1522.75114344547	475.793308270078	135.014404248402	690.218410663468	1094.30772040781	167.926833909651	1405.24324988098	624.097541744283	148.075130400544	824.502286172833	933.066257256211	182.48593630039	1125.45249558603	1137.62182726316	183.400878180408	1800.84021799949	1254.76235215017	147.116810623543	1495.44719033598	926.990658264627	172.820235825369	1737.0551314309	1184.51754905309	136.005977475148	2028.84585148178	787.401110186485	210.191073092275	1475.12937240629	1056.16510473768	140.25473462648	1639.54700064082
535.070013242455	142.001327222897	866.993506701631	835.502020642589	241.567910552004	1041.93211296226	585.263121641478	150.111986648005	821.093176614229	1227.68025478771	161.708594211002	1502.03269772281	1189.71380655464	139.491506387453	2009.0802273014	1095.7541136028	150.243344105675	1522.99558808648	475.814031661566	135.009300504501	690.187405367478	1095.14330664855	167.89173816237	1405.6644055553	624.026095047579	148.049933272966	824.04835051867	933.319968506693	182.448416965557	1125.55840166946	1137.45945452538	183.34268450215	1799.76590915057	1255.28922652067	147.087310977126	1495.8859311602	927.139111164657	172.762801772535	1737.07158131503	1185.29424784428	136.001327222897	2030.89151196347	787.452257396362	210.179758870815	1475.02608630843	1056.28203293347	140.232706867713	1639.83409783391
535.275765855182	142	867.569515299215	835.666704632545	241.62520778134	1042.01621970552	585.377457766682	150.137334932818	821.263624993327	1227.89650383768	161.725190706824	1502.29342243032	1190.46349561109	139.501753343993	2010.38176429029	1096.87172378927	150.273274526066	1524.30848448749	476.039035215908	135.013077025505	690.662295472202	1096.89492783621	167.923776041357	1407.86303278921	624.294663980374	148.046156751962	824.206067889317	934.140967369734	182.482478881273	1126.69457526721	1137.747742273	183.355504476967	1799.67805866472	1256.31494264409	147.075130400544	1497.24698073332	927.606626509619	172.738355645707	1737.68407022679	1186.41485847457	136	2033.47221277773	787.719717885008	210.239422495638	1475.21863370281	1056.39845435086	140.208592330198	1639.92554233728
535.604606592365	142	868.48053641247	835.96473355952	241.827799918714	1042.30360571074	585.571006278671	150.191044575164	821.737994391576	1228.22778889423	161.758413156949	1502.81088452752	1191.56523194706	139.540377598582	2012.74043694388	1098.3530937333	150.345927263016	1526.40151240416	476.428163013352	135.023779221956	691.555907839423	1099.29080798668	168.007130974758	1411.41989614451	624.839321942794	148.064428204093	824.858873599952	935.382731801946	182.579696658048	1128.63811325331	1138.39146835053	183.432807466168	1800.41006510738	1257.70946423717	147.083557173799	1499.31846691305	928.331597583377	172.743436741504	1738.68293516026	1187.80422875569	136	2036.26515447711	788.159143410606	210.351904738163	1475.549398622	1056.48926456792	140.185611274391	1639.66934810296
536.011345580218	142	869.590431972751	836.350605795164	242.161256381799	1042.70385991227	585.80531608647	150.267043059144	822.399903247223	1228.59918708611	161.802493696024	1503.4212822928	1192.86934271832	139.600736358548	2015.76356418729	1099.99814284733	150.446747616311	1528.92636544183	476.924732813165	135.04072345119	692.735683142591	1102.01987765596	168.125237396797	1415.8190085634	625.573323597662	148.103990648725	825.846604327143	936.874329535533	182.728858700243	1131.1091544299	1139.27093312413	183.562488067644	1801.72839128847	1259.31425670746	147.114413228436	1501.83593165521	929.228740712997	172.775733349867	1739.86576191767	1189.35498382016	136	2038.98408183549	788.710185725496	210.500981370289	1475.87637965347	1056.52663972707	140.167687555673	1638.97936852656
536.447558989572	142	870.757218007221	836.779082004186	242.607278263186	1043.12858768286	586.047403706371	150.358366466975	823.130008381362	1228.94661701884	161.852422010193	1503.97475011301	1194.21083834685	139.673477008876	2019.01053252056	1101.60815668466	150.560557081733	1531.52127407934	477.461745742007	135.061156926116	694.042079911763	1104.77129504293	168.262370089217	1420.51456800726	626.399718229146	148.16463362509	826.993510461305	938.443129660218	182.915859318303	1133.81214212774	1140.25678178487	183.729840959074	1803.37109316661	1260.9609274884	147.169283877341	1504.51728748277	930.199701423574	172.833455644115	1741.06700318115	1190.94475010102	136	2041.41860704464	789.304557096821	210.67295351435	1476.09467947859	1056.48362095398	140.158656149942	1637.8458248036
536.867817117369	142	871.851660057105	837.210849066092	243.144916340313	1043.50083559807	586.272890023277	150.45814764768	823.819127604683	1229.22607886987	161.906894129361	1504.35477993672	1195.4380715712	139.748693219329	2022.05116510775	1103.01448990327	150.673127237637	1533.85591524122	477.974699714687	135.082403674188	695.31422129312	1107.27358166651	168.405241116599	1424.99057461881	627.222429494178	148.243141865278	828.126559806863	939.929630741336	183.124454348275	1136.46010322872	1141.22213377818	183.918923548709	1805.06748009482	1262.48559682914	147.244469088175	1507.08626339733	931.1457964949	172.915340561378	1742.16997297186	1192.44614721772	136	2043.44922595568	789.874413621222	210.856439399695	1476.1459095335	1056.3334780448	140.160390457677	1636.32921028862
537.236224013363	142	872.768063643278	837.614447954314	243.750100710714	1043.75887116933	586.46869510659	150.559229858837	824.379624407401	1229.41737701029	161.967272548091	1504.48408942407	1196.42966969786	139.818015060839	2024.51595360394	1104.09527757921	150.775536671691	1535.66350545309	478.408106344162	135.101082211157	696.409609672291	1109.31951526355	168.544157026875	1428.80926119042	627.956448921605	148.335037677756	829.095989805596	941.197446998807	183.338620665087	1138.79521924106	1142.0542826173	184.115224601697	1806.56549335611	1263.74391627909	147.335037677756	1509.29063397701	931.979824644396	173.018932528743	1743.10404418845	1193.74511485619	136	2045.0364113271	790.362284245812	211.043007445895	1476.01187996572	1056.05791463046	140.172348107746	1634.53813367045
537.525839127183	142	873.428823718464	837.96643554506	244.3986677157	1043.85532419336	586.630723317542	150.655749731121	824.751171300147	1229.51757495756	162.036856247461	1504.32209913131	1197.10584431072	139.877417048997	2026.14479744743	1104.78454163542	150.86259059813	1536.76957174842	478.721106614645	135.115224601697	697.22551687943	1110.78122589887	168.673127237637	1431.65199435172	628.5347848609	148.433582677428	829.786710159494	942.142610840287	183.543620359447	1140.60522012686	1142.66246662583	184.306595855269	1807.65239915437	1264.62287622676	147.433582677428	1510.91882188532	932.633858092698	173.140854403134	1743.82221432467	1194.75085600534	136	2046.17993567827	790.726280361421	211.226841064653	1475.70115708099	1055.64643112375	140.190244371188	1632.59191687966
537.720641933763	142	873.790798212452	838.249847630571	245.066336235114	1043.76259123376	586.762940992561	150.742715744182	824.903336872095	1229.53791410424	162.118280432165	1503.86446965527	1197.43820414665	139.925766048379	2026.81123539463	1105.07202954985	150.935497326854	1537.1028143318	478.890940300491	135.124437192821	697.70388428284	1111.61342422725	168.790609503653	1433.34593632471	628.911643298922	148.530888298008	830.125896373595	942.698798428641	183.728835745353	1141.73355587287	1142.98479697142	184.48418737167	1808.17058552546	1265.05215536156	147.530888298008	1511.81462356865	933.065870640904	173.274399508565	1744.27898125628	1195.4068425838	136.001327222897	2046.87813290505	790.945829900931	211.405241116599	1475.2259484311	1055.10216633536	140.209378078494	1630.58487487597
537.813660666019	142	873.842852861061	838.45379325286	245.731751689869	1043.47250865425	586.868694155765	150.816687837942	824.83629767745	1229.48947978431	162.214040748598	1503.13523553904	1197.4472634935	139.965048876271	2026.53794376729	1104.99628226518	151	1536.69655936972	478.913166400105	135.130297433659	697.83645858473	1111.84610479557	168.898119622694	1433.87212469286	629.066938584207	148.619588618803	830.083547842	942.845958038869	183.888106827594	1142.09614135528	1142.99553704929	184.643912015134	1808.03631294048	1265.01422224681	147.619588618803	1511.89489100819	933.262575871441	173.412340666957	1744.42828552806	1195.69522099341	136.004650252251	2047.11835937156	791.021299062125	211.577031605645	1474.59806436539	1054.44356851035	140.225943644269	1628.57813522274
537.802407957977	142	873.596860111733	838.567342764448	246.376868955991	1042.9918008129	586.946532987772	150.8760898261	824.566976138903	1229.37189826647	162.322222510112	1502.16628010703	1197.18645180284	139.998672777103	2025.45183231263	1104.62454849166	151.064502673146	1535.65582586258	478.799347389908	135.137938458618	697.650894280245	1111.55637216317	169	1433.33402734674	629.00580752027	148.694373985709	829.677219132671	942.607600081358	184.020446544096	1141.6920510927	1142.7059498851	184.784504560407	1807.25204965925	1264.54529521785	147.694373985709	1511.16673947045	933.239012959385	173.546152833331	1744.21300549163	1195.64210843182	136.011749802608	2046.85393018678	790.972648656751	211.743402238244	1473.81251419939	1053.7066318557	140.237024504179	1626.58244088782
537.690091226368	142	873.083298521278	838.583672268898	246.988856422966	1042.34070784867	586.989705944584	150.921115796128	824.124042227584	1229.17604555794	162.439442918267	1500.99293717663	1196.73246546101	140.028973648582	2023.75455027828	1104.03649849499	151.13740940187	1534.12838537206	478.572796745069	135.151556599585	697.201920847965	1110.85004400398	169.101880377306	1431.92008049684	628.753530760678	148.752962700722	828.957946505629	942.045175848557	184.129680601476	1140.59693046438	1142.15881677302	184.908273103634	1805.89288156231	1263.72337757874	147.752962700722	1509.71820701028	933.033069467917	173.669804208283	1743.58299354468	1195.30690454699	136.025106444853	2046.02947181393	790.834101203212	211.905846523203	1472.85514037603	1052.94010892396	140.242100792802	1624.57666473306
537.483966190759	142	872.337551963638	838.501867191802	247.559027618439	1041.5434438961	586.987837313119	150.953299073663	823.533352081082	1228.88698294653	162.559229858837	1499.63600351469	1196.16467488822	140.057833896762	2021.65987412268	1103.3049462801	151.224463328309	1532.26290932662	478.26516382461	135.176114328927	696.552462488069	1109.83040723337	169.208063273451	1429.84535337015	628.354198143723	148.796254363015	828.00475155365	941.249483808532	184.222882113638	1138.95144657177	1141.42632182393	185.019919525175	1804.09597510073	1262.66023005371	147.796254363015	1507.70593965404	932.693158527561	173.778859701044	1742.51431910811	1194.76866728832	136.046700926337	2044.60723571617	790.643629339482	212.06460192738	1471.71555807611	1052.19550272007	140.243001979326	1622.53052124983
537.194078250631	142.001327222897	871.396700941652	838.329308612194	248.082987182087	1040.62442804099	586.930044970742	150.974893555147	822.814863290919	1228.49244883219	162.674454460534	1498.09901888265	1195.55162409011	140.085726703542	2019.33987830466	1102.48492857319	151.326872762363	1530.1718281152	477.91126555503	135.212713525701	695.761526553344	1108.58506854008	169.320895287215	1427.2985315883	627.859034843033	148.827651892254	826.905086551958	940.317428363752	184.309145484607	1136.92662944929	1140.5876299039	185.124861433113	1802.01668680351	1261.47075231915	147.827651892254	1505.31552621075	932.273409274529	173.874340400738	1741.0396860687	1194.11790614178	136.078884203872	2042.6086640644	790.441830165174	212.221646638027	1470.40836253256	1051.52531764288	140.243670922025	1620.43632941458
536.839221160785	142.004650252251	870.289405371813	838.086878954584	248.560354841336	1039.60008031971	586.813436217827	150.988250197392	821.976874806652	1227.99832834599	162.778859701044	1496.36756463002	1194.9434690442	140.112832013765	2016.90947226652	1101.61184860565	151.440770141163	1527.92414171019	477.544908182788	135.259738361099	694.878670906858	1107.17788763987	169.439442918267	1424.41800241408	627.320007422238	148.851783585223	825.739807099999	939.337531857073	184.394867380975	1134.69060593655	1139.71961133895	185.227527558715	1799.80231500564	1260.25487813945	147.851783585223	1502.72394566978	931.821791903793	173.95927654881	1739.2456393097	1193.4340457804	136.122582951003	2040.12222842687	790.264074352796	212.379613215047	1468.97918732027	1050.96701081573	140.248230132412	1618.3170641985
536.442952833177	142.011749802608	869.045408011623	837.806123212946	248.993506675217	1038.48478887869	586.647213071229	150.995349747749	821.027699740414	1227.43157558635	162.869690148487	1494.42666237449	1194.36808710768	140.137676600757	2014.42707538253	1100.70272689334	151.559229858837	1525.55100981179	477.195188488343	135.311665540638	693.942791335358	1105.65330822144	169.559229858837	1421.29273470483	626.781160061946	148.873025595694	824.574377001156	938.374615733536	184.484728708329	1132.38689748294	1138.87987139239	185.331173243374	1797.56986376268	1259.08230696193	147.873025595694	1500.07565618259	931.381921442036	174.04072345119	1737.27600057127	1192.78741120938	136.178661909808	2037.31179487404	790.141330919246	212.541328857794	1467.51131857409	1050.54816236517	140.261846594691	1616.23582673519
536.036670106321	142.023779221956	867.695465683771	837.529369326907	249.387291535702	1037.29287345074	586.453928224415	150.998672777103	819.981608139312	1226.84244314819	162.946199523305	1492.27138602972	1193.83616552269	140.159183168863	2011.92034353945	1099.76893369748	151.673127237637	1523.0694983966	476.88418708323	135.360134474102	692.988068986204	1104.05104083307	169.674454460534	1417.98481229196	626.275125105546	148.894267536593	823.457505152881	937.464412704925	184.57844674192	1130.12222984955	1138.10086896678	185.436119888913	1795.3974252195	1257.98531360039	147.894267536593	1497.47226955255	930.987840649994	174.126986822159	1735.31059355577	1192.23103660772	136.24553445321	2034.40055038638	790.097697101779	212.710781651248	1466.11880777908	1050.27964265779	140.287585127297	1614.28553952468
535.65401648522	142.04072345119	866.279475407471	837.300685177265	249.749553436678	1036.04464315071	586.266434795742	151.001327222897	818.867122322661	1226.29156696483	163.012293976983	1489.92482719951	1193.35459879369	140.176381527814	2009.42671018093	1098.82801381441	151.774209448794	1520.51415599126	476.627607572973	135.395923456643	692.051210545953	1102.41978952515	169.780186923941	1414.56694028349	625.826105132071	148.916269102915	822.42328411309	936.622008805592	184.673389095498	1127.96720408809	1137.39515974498	185.54185235232	1793.33515035435	1256.96965592066	147.916269102915	1494.97872794246	930.66782480787	174.225790551206	1733.53527102991	1191.80510528954	136.320471046923	2031.63392870909	790.153882776923	212.89075287345	1464.92530635109	1050.16099103401	140.326872762363	1612.56482818639
535.326136161402	142.061156926116	864.847428022498	837.155734157194	250.086677962755	1034.77028082613	586.118939960932	151.004650252251	817.729495323746	1225.83635618236	163.071859122567	1487.44106910449	1192.92653428252	140.189463360493	2007.02588859312	1097.90450448593	151.857940345879	1517.96000253234	476.434917737587	135.412607865843	691.178818405779	1100.8199104642	169.874340400738	1411.15533620192	625.449682522532	148.938843073884	821.505078413271	935.853505536144	184.764831416327	1125.98219548095	1136.76366413359	185.647611008172	1791.43564607012	1256.03209831792	147.938843073884	1492.6579810533	930.445641595517	174.343272817222	1732.10925905922	1191.54254879314	136.400046689974	2029.23898249555	790.324639104137	213.082753445428	1464.04262039042	1050.18452426014	140.38030278797	1611.15459920116
535.079257941356	142.082403674188	863.456194069598	837.118814685824	250.406363191809	1033.50486304033	586.042208964062	151.011749802608	816.624078066234	1225.52037521341	163.128899452839	1484.90002745954	1192.55960438105	140.199885940204	2004.84653689548	1097.03338349074	151.922420301349	1515.52483511404	476.308729081577	135.407678066425	690.426492496201	1099.3206335397	169.95927654881	1407.91276974045	625.159376091068	148.95927654881	820.738859830248	935.16921224101	184.849770623312	1124.22871310066	1136.20790372374	185.752011441509	1789.76504942116	1255.17695808242	147.95927654881	1490.58428378379	930.3449091556	174.482276640875	1731.16242810874	1191.4748081663	136.480695426204	2027.41261490646	790.62307758512	213.286149311173	1463.5665044137	1050.34263433583	140.444093170517	1610.11498883726
534.93151373521	142.101082211157	862.165089379323	837.198631263406	250.713492655592	1032.28765207521	586.054715329641	151.023779221956	815.61049076619	1225.36820657192	163.186018359229	1482.40053779615	1192.26814379692	140.210583329481	2003.04714920674	1096.25638282503	151.971570525793	1513.35283022422	476.25064880372	135.384432383411	689.85178059181	1097.9951339291	170.04072345119	1405.03358542426	624.969867972773	148.976220778044	820.160942209885	934.593617782989	184.927093271276	1122.77507572001	1135.74120111382	185.856439399695	1788.40494068109	1254.42812081206	147.976220778044	1488.84711626518	930.388108808108	174.641459809738	1730.77232772851	1191.63085698803	136.559229858837	2026.28612602843	791.058790458768	213.500198321767	1463.55620205725	1050.63196171542	140.514226606484	1609.47197293683
534.887824025069	142.1138973788	861.030756586256	837.38228587813	251.010966754086	1031.15865373266	586.156655843098	151.04072345119	814.744938039775	1225.37362403581	163.241674756429	1480.04686056642	1192.06897531363	140.223685842009	2001.79161055566	1095.61408573681	152.010702196451	1511.59008513879	476.259355193714	135.35117900324	689.508802132114	1096.90704809986	170.125659599262	1402.71619656391	624.892851573409	148.988250197392	819.807012955248	934.16108118024	185	1121.6931229277	1135.38621220268	185.96262229584	1787.44269829279	1253.8257763036	147.989577420289	1487.54185940376	930.598149322659	174.816514114655	1730.96698019535	1192.03761249604	136.633201952597	2025.91894066703	791.63988608426	213.723687860755	1464.03205681082	1051.05671170007	140.584074445828	1609.21973520164
534.944411756681	142.118459717673	860.10635798761	837.647716816889	251.298588515133	1030.16094132046	586.335148293646	151.061156926116	814.075553684349	1225.51601663508	163.293775880451	1477.95146586896	1191.98174660292	140.24088420096	2001.19768168283	1095.14201539194	152.04649577865	1510.34636101916	476.334379700805	135.317927232184	689.432085182993	1096.10564349785	170.219813076059	1401.11207806183	624.938175976106	148.995349747749	819.699961918923	933.907564086994	185.072906728724	1121.04113487579	1135.1724936318	186.072906728724	1786.94805279983	1253.41594177983	148	1486.74230981208	930.996510202702	175	1731.72753649576	1192.71619438827	136.701035521183	2026.3003494407	792.372039517942	213.955243128743	1464.97811757572	1051.62856652177	140.648282650645	1609.32864707381
535.091289863112	142.1138973788	859.436907204831	837.968179419615	251.575826354658	1029.33897794128	586.567229747036	151.083730897085	813.640834827098	1225.77104718961	163.339955128893	1476.22695636509	1192.03125199404	140.262370089217	2001.32004070195	1094.87200942891	152.084936148072	1509.67966263588	476.478272916894	135.295781335415	689.637109321538	1095.62636670652	170.325545539466	1400.30460138804	625.106734118523	148.998672777103	819.84004243206	933.855865037052	185.151556599585	1120.83623224802	1135.12500681922	186.188934303745	1786.94216695182	1253.23329842253	148.010422579711	1486.46913656166	931.597558770316	175.183485885345	1732.99238898498	1193.67228143471	136.761932627265	2027.352768287	793.256560299293	214.196018736475	1466.34244349173	1052.35966308304	140.70208020637	1609.75116871654
535.315123941385	142.101082211157	859.05439506278	838.323113489014	251.838689404264	1028.73541050636	586.829135889618	151.105732463407	813.465658550271	1226.12104109019	163.379074868932	1474.97630395346	1192.24326822173	140.28826708954	2002.12775558406	1094.83015234351	152.129104600526	1509.57878225536	476.695646994669	135.292411002719	690.112586169037	1095.49154897746	170.440770141163	1400.28540631048	625.387556673693	149	820.203436168461	934.00058519888	185.239818835924	1121.04092849553	1135.25156351872	186.310472707504	1787.38676964664	1253.28342478708	148.023779221956	1486.67070386993	932.400685642946	175.358540190262	1734.66410759628	1194.88788951156	136.815622472906	2028.94331470174	794.283865508839	214.445420393414	1468.04287446123	1053.25307071614	140.744042967078	1610.42301575139
535.60091588127	142.082403674188	858.973048944404	838.702265291313	252.084140681697	1028.38526559099	587.101179161525	151.125647181409	813.559114644923	1226.56231600788	163.412861857617	1474.28316925444	1192.64523967779	140.318970238682	2003.51536707841	1095.03732369276	152.179966415029	1509.97026351085	476.99264665024	135.311603489438	690.824204800369	1095.71214118608	170.559229858837	1400.95978756089	625.755170396083	149	820.741862960114	934.303345049674	185.337033484213	1121.55509448957	1135.5359705936	186.434792666016	1788.18140532499	1253.53535195017	148.04072345119	1487.22542594335	933.381901040954	175.517723359125	1736.61809196769	1196.31422246532	136.862061541382	2030.90029960608	795.42978900099	214.700506464436	1469.97663568234	1054.28840744099	140.775007614943	1611.26837223603
535.933601713686	142.061156926116	859.176439549078	839.106289623116	252.307997547219	1028.30023805089	587.370422344806	151.142238939629	813.905275294431	1227.10264393327	163.445332480036	1474.18187043381	1193.25800616642	140.355310498565	2005.31637557524	1095.50019677249	152.237807552701	1510.72985421003	477.373918248785	135.352764955512	691.717717422981	1096.27952716138	170.673127237637	1402.16194210524	626.17383379836	149	821.388391610633	934.699738379651	185.439355004888	1122.22735647578	1135.94168450451	186.55790263594	1789.18099055593	1253.9302776175	148.061156926116	1487.9576374884	934.492537915153	175.655399959881	1738.71861905672	1197.87485047174	136.901196270953	2033.03970021814	796.651969276356	214.955498931762	1472.02972385198	1055.42213223591	140.798786836899	1612.20615903106
536.29396783619	142.04072345119	859.609451404788	839.53658064472	252.505856322208	1028.45412779476	587.627401581599	151.15462082999	814.456440114208	1227.74345155861	163.481493592353	1474.63052487645	1194.08066984657	140.398195972551	2007.32791981564	1096.20035197068	152.300444656835	1511.69866533526	477.836788184033	135.41127780523	692.723336465006	1097.15068450392	170.772882225897	1403.67832550751	626.600726847984	149	822.06658897832	935.109594375757	185.536940242208	1122.88275612885	1136.41286851588	186.673127237637	1790.22556029905	1254.38936205504	148.082403674188	1488.67515340123	935.659175725837	175.768231973646	1740.82368654235	1199.46752367653	136.932865598736	2035.17706804404	797.888626433201	215.200504583632	1474.08465038876	1056.58214020156	140.818968219936	1613.14988232122
536.658982996004	142.023779221956	860.175944362512	839.990423911838	252.672657798353	1028.77477954567	587.866248103305	151.162239137273	815.128398336454	1228.47251467851	163.525706289236	1475.49542553902	1195.0806759064	140.446542468624	2009.32756601584	1097.08129454983	152.365204159471	1512.6966652342	478.366540137885	135.48069061903	693.757332354602	1098.23590322891	170.850635647834	1405.26466835204	626.99375421534	149	822.702949489534	935.455084050959	185.618805570281	1123.35453536804	1136.88940197387	186.774209448794	1791.17037829864	1254.83359123504	148.101082211157	1489.20931505184	936.795332304271	175.855285900085	1742.79908670927	1200.98310435289	136.957949325913	2037.1498374543	799.067621541417	215.422766153957	1476.02625257241	1057.68355080395	140.83948960824	1614.01526068418
536.999442426142	142.011749802608	860.741700532593	840.448705409674	252.802480030502	1029.14361986841	588.074367678999	151.164807348377	815.802330439789	1229.24512028886	163.578882185126	1476.55537794572	1196.18715710178	140.497281622203	2011.09976338529	1098.04436615052	152.42760520228	1513.54123636092	478.934513286503	135.552130308479	694.733334523414	1099.39175617505	170.900042771343	1406.66923821163	627.317277796604	149	823.229919651029	935.675481422739	185.673300960924	1123.51317267782	1137.31580798798	186.855285900085	1791.9051796384	1255.19672178962	148.113897378801	1489.4388731506	937.812349753989	175.917770049098	1744.53570437829	1202.32014816575	136.976220778044	2038.84054890832	800.113768338086	215.608798287778	1477.75443871063	1058.64264367418	140.862323399243	1614.73882055544
537.280766513209	142.004650252251	861.155012183168	840.876318000537	252.888964611207	1029.41283425125	588.234690029734	151.162239137273	816.341032442282	1229.98994423211	163.639603668036	1477.53241987862	1197.29197134655	140.544151464653	2012.44737691402	1098.95569509352	152.48166731564	1514.06034516953	479.498859737213	135.619181533966	695.566104021535	1100.42966149231	170.916987000576	1407.64757791557	627.546725734621	149	823.596020459819	935.731531005601	185.691979497892	1123.28420578209	1137.64835212015	186.913119796848	1792.3674990434	1255.433716502	148.118459717673	1489.30720550796	938.634706716814	175.958493500288	1745.95093565038	1203.4029587532	136.988250197392	2040.17832292723	800.964099535208	215.747955066552	1479.18534159934	1059.39657043725	140.887167986235	1615.27843144071
537.471624710019	142.001327222897	861.2744627166	841.228044829857	252.927676779174	1029.43292242558	588.328452491252	151.15462082999	816.612649700424	1230.62406255136	163.70236274408	1478.14918961053	1198.26340581006	140.578880285241	2013.22133352343	1099.66283922646	152.522106550432	1514.11645877177	480.009614676415	135.676183206047	696.18696366877	1101.14240389379	170.900042771343	1407.98935189502	627.667289456069	149	823.764958178632	935.605188623015	185.671546022966	1122.64484165105	1137.85468948935	186.945416474783	1792.53275730063	1255.51507046617	148.113897378801	1488.80861295229	939.210398681709	175.982272722244	1746.99264541781	1204.1898698313	136.995349747749	2041.13391376141	801.576336907672	215.834738853187	1480.25475921139	1059.91303442411	140.912946073561	1615.61651665806
537.54944888988	142	861.000990408342	841.460129688443	252.91662211171	1029.08539064403	588.34079654631	151.142238939629	816.521448481748	1231.07462744851	163.760181164076	1478.1919189777	1198.97323670535	140.595570256662	2013.33424005795	1100.02894396449	152.543620359447	1513.62334828643	480.419154155995	135.722282269255	696.550710185096	1101.34612031924	170.850635647835	1407.54293940876	627.675835142321	149	823.719295634726	935.295486730578	185.614676508691	1121.61713290062	1137.91634295481	186.953843248037	1792.40465785752	1255.42623255915	148.101082211157	1487.9716595614	939.515488028573	175.992695301956	1747.63852582931	1204.6750989125	136.997345554206	2041.71443248216	801.93539294757	215.868964413564	1480.92563876702	1060.19531083139	140.93618862809	1615.76154718174
537.506273499332	142	860.305290982155	841.542897933088	252.857022907594	1028.31387605156	588.267320284283	151.125647181409	816.03513194123	1231.30184237298	163.806392726328	1477.56463493565	1199.31892454398	140.588598174402	2012.77260912297	1099.95789487569	152.544022637111	1512.56007636856	480.690083897162	135.758063385709	696.642266057949	1100.92152916378	170.772882225897	1406.24019428848	627.575394349013	149	823.462200229991	934.81029527539	185.529473161733	1120.2536644185	1137.82159464526	186.940222048157	1792.00507993425	1255.15723381099	148.082403674188	1486.84236001684	939.556332800357	175.994022524852	1747.88323234979	1204.88641691999	136.995349747749	2041.93454553608	802.055009496091	215.856257789521	1481.18355934402	1060.2788893165	140.954626296559	1615.72722585614
537.353530656208	142	859.238787745394	841.468807660597	252.756482171038	1027.14109658099	588.118900639846	151.105732463407	815.197086842547	1231.31122474178	163.836179648056	1476.31759648044	1199.25415114755	140.559217440983	2011.616009117	1099.42535131791	152.524916385082	1510.9871306003	480.805046037574	135.786757417551	696.483580156956	1099.85231651102	170.673127237637	1404.12703824771	627.378265737035	149	823.019949865968	934.168090292281	185.427693115658	1118.62810287585	1137.57032922967	186.90908637678	1791.37093821141	1254.70775183866	148.061156926116	1485.47547303451	939.363760313714	175.988250197392	1747.73254968462	1204.87383356605	136.988250197392	2041.80599114675	801.972748967182	215.806145590186	1481.03716873998	1060.2186427022	140.964470975436	1615.52175187682
537.119601855627	142	857.924924890391	841.254280205553	252.625233478166	1025.6626255383	587.919542192136	151.083730897085	814.121487801241	1231.15242940155	163.848723017155	1474.63392965536	1198.79668786434	140.512734080186	2010.02686046151	1098.48192709368	152.490973382363	1509.04004338047	480.768997674342	135.811868669578	696.127207148703	1098.23138310642	170.560557081733	1401.37221823607	627.103278120913	149	822.440546589453	933.401669184119	185.322222510112	1116.83405518168	1137.17585962637	186.863795849117	1790.55581467963	1254.09275704026	148.04072345119	1483.93855282079	938.990483855618	175.976220778044	1747.20440146945	1204.70285152871	136.976220778044	2041.33460272773	801.74198069606	215.729655874131	1480.52080579282	1060.07816347349	140.964470975436	1615.14220793352
536.845818527929	142	856.529240561495	840.936729051488	252.476820622427	1024.02315618155	587.701728870877	151.062484149013	812.961234158165	1230.90644454621	163.845381869784	1472.77495321931	1198.02806917002	140.459041593294	2008.2244611669	1097.24596595307	152.450501419639	1506.90601517779	480.608633882684	135.836166578886	695.64721047572	1096.24851558241	170.445420393414	1398.24420208139	626.77499519709	149	821.792940040386	932.558268170805	185.224463328309	1114.98831642559	1136.66600095169	186.80933138852	1789.63262252199	1253.34598796723	148.023779221956	1482.32141750643	938.502719433994	175.95927654881	1746.33809373227	1204.44737964905	136.95927654881	2040.53847570818	801.421711751592	215.638188531761	1479.69626706543	1059.91878102241	140.954626296559	1614.57952525606
536.575913478778	142	855.221975441996	840.562540737276	252.325545539466	1022.37837923144	587.497718847828	151.045373703441	811.872867735352	1230.65985988634	163.830974921608	1471.01392891612	1197.07367356584	140.410481687538	2006.44709656861	1095.87563945369	152.412599465905	1504.79001010403	480.366248084225	135.860996176347	695.125282021699	1094.14717540799	170.338622564971	1395.07146321101	626.426986558853	149	821.154137824895	931.706542727432	185.143386877018	1113.22119671108	1136.08885430239	186.749898470316	1788.68649714142	1252.52955553672	148.011749802608	1480.73366605494	937.970328378558	175.937515850987	1745.2016028025	1204.18027379383	136.938843073884	2039.46252601802	801.066305749769	215.539460160296	1478.64672754951	1059.78720468231	140.937515850987	1613.82628103147
536.347932580037	142	854.142899865076	840.176185135643	252.182435371899	1020.86046412411	587.330728796807	151.035529024564	810.979205733561	1230.4808628676	163.811082851709	1469.56905533962	1196.07614691883	140.378469226001	2004.91525975406	1094.53475417955	152.386725183258	1502.87951607124	480.091528604311	135.885840763338	694.638434663205	1092.17264490559	170.249569773162	1392.18732269846	626.094985105173	149	820.603035381779	930.928375524761	185.082229950902	1111.67132618497	1135.50723759271	186.68954444795	1787.81217634151	1251.72564319819	148.004650252251	1479.30361935553	937.461099643322	175.912946073561	1743.89134660829	1203.96953514238	136.917596325812	2038.19104113568	800.717050876808	215.438121257591	1477.46853654875	1059.71372603621	140.917596325812	1612.88824780503
536.188842886773	142	853.375806974354	839.811045955461	252.055005727682	1019.54826104741	587.211562350757	151.035529024564	810.344717254918	1230.40483689777	163.790621921506	1468.55385915851	1195.16231996887	140.370128687437	2003.78463016925	1093.354942146	152.376966379933	1501.30354056207	479.830006980514	135.90829582131	694.244236995993	1090.518614878	170.184110328208	1389.86208417637	625.812031510419	149	820.203348577033	930.301307961407	185.041506499712	1110.46256518779	1134.98464602779	186.631350839265	1787.09103536899	1251.02018456292	148.001327222897	1478.15011073317	937.033102636505	175.887167986235	1742.53472237999	1203.8712449591	136.898917788843	2036.85770392754	800.401184934014	215.335566734504	1476.26526908581	1059.71136060329	140.898917788843	1611.79915828206
536.111123523367	142	852.940863363005	839.486146499536	251.944291492284	1018.46162243542	587.137790927776	151.045373703441	809.968199754954	1230.43122104034	163.774056355731	1467.96838676058	1194.42024659711	140.385061633447	2003.12113658665	1092.41525441088	152.383646497172	1500.11342266667	479.617233837349	135.924438825482	693.975331294194	1089.29553056027	170.143386877018	1388.25565877616	625.608321714386	149	819.989704471968	929.890038911694	185.017727277756	1109.67683055403	1134.58140222872	186.576712434186	1786.56888095656	1250.49016594501	148	1477.35397971214	936.727779459882	175.860996176347	1741.2705903252	1203.92205607216	136.8861026212	2035.62406558849	800.130704821744	215.231491316903	1475.13104974548	1059.77724738602	140.8861026212	1610.62047328044
536.114820616521	142	852.800253385169	839.207650532757	251.84537917001	1017.56612951551	587.100336854679	151.062484149013	809.79463452588	1230.53324723742	163.761648272924	1467.71201274072	1193.89116996447	140.417686054351	2002.91136983485	1091.73656814103	152.400046689974	1499.2908988437	479.473790471354	135.930847074603	693.843857802382	1088.5216373233	170.1239101739	1387.40666087492	625.497576548942	149	819.968562678294	929.724906705471	185.005977475148	1109.34444976388	1134.33307273392	186.525167943121	1786.25899274485	1250.17822772268	148	1476.94597658925	936.56901676517	175.834839355989	1740.22705239839	1204.1333417964	136.881540282327	2034.65037533695	799.907615126683	215.127086076393	1474.13852981129	1059.89628752654	140.88021305943	1609.43186614145
536.192123605721	142	852.881991417298	838.974428308029	251.751230430814	1016.80220125394	587.089276946042	151.082403674188	809.741645815796	1230.6739052338	163.754576177844	1467.64104867768	1193.57170302064	140.457437394909	2003.06824737904	1091.29198577231	152.416192753058	1498.75899890827	479.406052682232	135.923747524246	693.840454570183	1088.13890020505	170.118809488912	1387.23182052778	625.483105628001	149	820.118031881125	929.798157267156	185.001327222897	1109.43621550956	1134.25313767832	186.476159279776	1786.13739352337	1250.09327752596	148	1476.89758798766	936.563616501844	175.807218417328	1739.50666343488	1204.49585970618	136.8861026212	2034.07439052562	799.731968385948	215.023779221956	1473.33766934859	1060.05068625653	140.881452368949	1608.3254859925
536.333581534656	142	853.101989127962	838.789262263293	251.653212519636	1016.10855567323	587.102695811058	151.101082211157	809.727511208088	1230.833313367	163.751225693213	1467.61642363962	1193.42897293451	140.492972247732	2003.47231224906	1091.02795796781	152.421820456966	1498.42173650832	479.409811292734	135.90331404932	693.949417608431	1088.0452944675	170.119874853948	1387.56869742732	625.555761781197	149	820.396570211495	930.066100431804	184.998672777103	1109.86697986988	1134.32875013776	186.427937818065	1786.15428539288	1250.2066902773	148	1477.12833483083	936.700466706179	175.775007614943	1739.16600784706	1204.97801550001	136.897590565946	2033.9776364285	799.601098547641	214.926714400302	1472.7476387659	1060.21928653069	140.887167986235	1607.38268809015
536.529760615735	142	853.388107676681	838.660975487679	251.543615552274	1015.44630210999	587.149725198222	151.113897378801	809.697947047863	1231.01373649485	163.748949910878	1467.54883344636	1193.41854220187	140.514921520432	2003.99651225197	1090.88951288328	152.408738624287	1498.18701743998	479.475814912063	135.870895399474	694.152506167693	1088.13138072868	170.11978694057	1388.21307598773	625.699413867166	149	820.760818067367	930.458274125614	184.994022524852	1110.51848609876	1134.52938653323	186.380398963343	1786.26145489567	1250.46379826074	148	1477.53040276903	936.955802751059	175.734284163753	1739.20953878477	1205.53601790409	136.912946073561	2034.37435240616	799.514423284661	214.838966113714	1472.36184017772	1060.38321605761	140.892489880959	1606.65921136054
536.772817267408	142	853.693341619958	838.604364880502	251.4197026786	1014.808908348	587.248364809014	151.118459717673	809.637209009892	1231.24178937029	163.746575440962	1467.41929901974	1193.49672365453	140.517723359125	2004.54056381112	1090.83159051629	152.37416275882	1497.99206262802	479.591461716226	135.830456164683	694.434396546926	1088.30546012471	170.1138973788	1388.96686689312	625.895824409911	149	821.169909934082	930.892826544358	184.982272722244	1111.25406022562	1134.81499990194	186.334234774006	1786.41268499371	1250.79833113358	148	1477.9854673762	937.293980624157	175.681558818065	1739.59747196135	1206.11951348948	136.927093271276	2035.21435332768	799.470898064351	214.762568410984	1472.16031284541	1060.52419142515	140.893469370443	1606.17787649663
537.055661308106	142.001327222897	853.996585978408	838.636575565422	251.282927264367	1014.21853708795	587.418687537896	151.115224601697	809.567853359893	1231.55900537733	163.742826375236	1467.27415460343	1193.63345873905	140.500345852608	2005.03919458483	1090.83347426184	152.321162486102	1497.81198564199	479.745994632838	135.785971669255	694.783957148476	1088.51593416263	170.101082211157	1389.6681507252	626.129374454344	149	821.593281454783	931.298435321898	184.958493500288	1111.9455832529	1135.15078293263	186.290824980874	1786.58331857014	1251.15333995448	148	1478.3911332289	937.675595542291	175.615026279931	1740.26267175581	1206.6838184226	136.934170103957	2036.40547096907	799.468868247254	214.69736790292	1472.12021156924	1060.62844067957	140.886369820086	1605.9300473286
537.367596213553	142.004650252251	854.299839201472	838.766532238765	251.137915740942	1013.7161733923	587.67392855224	151.105732463407	809.540919280718	1232.00090354572	163.737869050968	1467.20169652597	1193.81696811707	140.464723086406	2005.46998373021	1090.90009278858	152.256392614069	1497.6602054986	479.928674485947	135.738951571458	695.192560594133	1088.75399781451	170.082403674188	1390.21961721869	626.386708027804	149	822.011319111565	931.621915186393	184.919097271995	1112.49554546213	1135.50846292011	186.251825537596	1786.77131792149	1251.48865029405	148	1478.67993557865	938.064157194807	175.53545063688	1741.13345768326	1207.19943245211	136.929519851706	2037.84259805767	799.50904292441	214.643310527161	1472.2311808175	1060.69003381914	140.870037881899	1605.8873952503
537.695835532336	142.011749802608	854.615938018052	838.991644629814	250.99307126564	1013.34309508353	588.014640803248	151.094153476797	809.614640560835	1232.58386121308	163.733332904541	1467.29773593504	1194.04871591091	140.415575782932	2005.84403848103	1091.0552453977	152.188934303745	1497.58043148587	480.13055929152	135.689975291497	695.648235451035	1089.0497969793	170.061156926116	1390.59752901441	626.657869557946	149	822.411320802062	931.84234998081	184.861263375233	1112.84613900265	1135.87307492581	186.218607825072	1786.98888252726	1251.79281292664	148	1478.82572022062	938.432743879561	175.446397845072	1742.15892475648	1207.65581872303	136.910693216417	2039.44416636296	799.592633797601	214.600736358548	1472.50203211332	1060.71127488345	140.846444535045	1606.02019764228
538.02528016814	142.023779221956	854.959824039259	839.293725156446	250.856451817549	1013.13231914699	588.422453793288	151.084936148072	809.837358629371	1233.29400872153	163.72946499539	1467.64358226309	1194.34447348762	140.358104609114	2006.20448756563	1091.33844736075	152.126986822159	1497.64058253271	480.343540016108	135.638398417049	696.139701328305	1089.46103031176	170.04072345119	1390.85338671283	626.932098046928	149	822.786749559536	931.965126518651	184.785959251402	1112.98596681647	1136.23839570369	186.19066861148	1787.25653144887	1252.07748378932	148	1478.8421592724	938.768845177631	175.353716214724	1743.32025627197	1208.0668559635	136.877417048997	2041.17476128414	799.722802018441	214.570544080297	1472.96021908387	1060.70698855034	140.820295442833	1606.31498737629
538.338633734256	142.042050674087	855.346932614679	839.640793995525	250.734127595921	1013.10118507583	588.863300850901	151.08144690238	810.238780618845	1234.08692464171	163.728679177521	1468.28824605935	1194.72391201894	140.297121627481	2006.61552860275	1091.79292525076	152.076252475754	1497.91998327862	480.56188430463	135.583885870952	696.653502607769	1090.05326533704	170.023779221956	1391.10072578683	627.199024405614	149	823.137448801427	932.018222483459	184.69823368249	1112.94304685588	1136.60223135369	186.167697855495	1787.59797941328	1252.36904264964	148	1478.77470296774	939.073082180325	175.26438861335	1744.61434943167	1208.46271023893	136.831760669904	2043.03276104937	799.904194521784	214.553078660402	1473.63209696454	1060.70139458179	140.797809385242	1606.76576279331
538.621063768451	142.067134401264	855.785893321453	839.994899848863	250.627745134259	1013.24745997032	589.295518228985	151.084936148072	810.819970151259	1234.89807950842	163.731219933348	1469.2397573229	1195.20028946017	140.236480329804	2007.14992930968	1092.44995316734	152.040179276815	1498.49489421462	480.780985090091	135.527288155223	697.177955131805	1090.87632857067	170.011749802608	1391.48386986445	627.445366300963	149	823.466541838339	932.034302446757	184.604603562277	1112.76004057524	1136.95752878034	186.14688919188	1788.02057715341	1252.69059060725	148	1478.67108171744	939.353066848738	175.185067100016	1746.03793308591	1208.87650346101	136.778244768746	2045.02608389112	800.136625553459	214.546953037308	1474.52510702252	1060.7174251086	140.785020410043	1607.36492967127
538.862564735951	142.098803729047	856.277748240402	840.319463784744	250.53492361796	1013.54909961782	589.677314402084	151.094153476797	811.556022789957	1235.65947167547	163.736134743234	1470.46211999367	1195.77533097196	140.179966415029	2007.87459253726	1093.31906901046	152.017727277756	1499.42046356486	480.998672777103	135.472958980919	697.703903310626	1091.94673204594	170.004650252251	1392.1433172119	627.658383517818	149	823.780552887099	932.041671443974	184.515004092785	1112.4815039188	1137.28929591349	186.126974404305	1788.51640261012	1253.05063182574	148	1478.56893613359	939.612510264905	175.119607655062	1747.56422123593	1209.32572147347	136.721579627164	2047.14597670404	800.412489842276	214.547736351868	1475.61482004371	1060.76792365398	140.785020410043	1608.09408186094
539.058515687434	142.136611235721	856.810066796243	840.585179399794	250.446371652627	1013.9620855942	589.976452604187	151.105732463407	812.395655853776	1236.31227688907	163.740685879193	1471.87448735545	1196.43404390351	140.129104600526	2008.83754169918	1094.37992572512	152.005977475148	1500.71630360489	481.214364657659	135.424986918488	698.224403473632	1093.23616683276	170.001327222897	1393.17979840695	627.823661468047	149	824.088969419566	932.059270091973	184.439033133655	1112.14473334197	1137.57519527431	186.105732463407	1789.0701199083	1253.43940476372	148	1478.49103386889	939.847117095773	175.069152925397	1749.12547691355	1209.80507593225	136.66708771129	2049.33317297884	800.713769631081	214.548801716904	1476.83507542002	1060.84852458716	140.799136608139	1608.9039553471
539.210850794405	142.178400051946	857.353006880208	840.776380137566	250.350833969601	1014.42201267874	590.176867611769	151.115224601697	813.265795912363	1236.81978581968	163.741411238961	1473.35476395046	1197.14143859212	140.086263370969	2010.05201551314	1095.57644035417	152.001327222897	1502.35488848501	481.426365892762	135.388029688479	698.734620490667	1094.66541742925	170	1394.62889091282	627.933120645807	149	824.401502740412	932.097479251205	184.385323491309	1111.77469058599	1137.79291170911	186.083730897085	1789.65789314074	1253.83659525658	148	1478.44250403221	940.040300405037	175.030878772314	1750.61664096441	1210.28111494412	136.618108302843	2051.4768629857	801.01274731701	214.541502581081	1478.08651248066	1060.93565177936	140.824945695083	1609.71848984546
539.325369491513	142.220340094979	857.863968125292	840.88927792734	250.233736070747	1014.85504649176	590.278246457178	151.118459717673	814.086841483413	1237.16942950825	163.732956940856	1474.76323352748	1197.84904202594	140.052473253798	2011.49334424941	1096.82527522184	152	1504.26357931032	481.632680761936	135.36470089926	699.230591034073	1096.11738175304	170	1396.45348907674	627.984559624239	148.998672777103	824.729781360314	932.165410528747	184.35862045875	1111.39749257541	1137.92896907406	186.061156926116	1790.26821451764	1254.22262532367	148	1478.43157867462	940.168719851831	175	1751.91321683151	1210.7040961576	136.577381376884	2053.43242806765	801.277249080719	214.517611687037	1479.25673296204	1060.99517243048	140.858194337653	1610.44635683871
539.411087913113	142.257457979105	858.294511516191	840.931517469408	250.082559467026	1015.18903140008	590.293403406699	151.113897378801	814.780619988052	1237.3697018344	163.710504941797	1475.95971886152	1198.49839308271	140.028429474207	2013.09291171928	1098.02348319108	152	1506.32596851693	481.82871725729	135.355846410945	699.706828686383	1097.4542051644	170	1398.54165471812	627.986692671857	148.995349747749	825.088903920637	932.276984573974	184.359345818517	1111.05312514428	1137.98500882209	186.04072345119	1790.90759292725	1254.59269001425	148	1478.48252700875	940.214519976922	174.969121227686	1752.8958353026	1211.03316891096	136.54519809935	2055.05328021539	801.478908590272	214.468461462593	1480.2386592389	1060.99999497466	140.892489880959	1610.99805174739
539.473812930625	142.284568096502	858.597267198668	840.915878870284	249.887494802585	1015.36436467925	590.242401861408	151.101082211157	815.283442944699	1237.43961167439	163.66848179256	1476.82726769991	1199.03222035028	140.013077025505	2014.74366823735	1099.0696561573	152	1508.39610822373	482.010168587937	135.358366466975	700.155916628487	1098.54327667377	169.998672777103	1400.72285175457	627.959903898962	148.988250197392	825.497290214512	932.448661092412	184.382145688931	1110.7959976177	1137.97918635764	186.023779221956	1791.60186540239	1254.95848726888	148	1478.64251786947	940.17013139083	174.9321742975	1753.47510393575	1211.24737081422	136.520631796693	2056.22296443688	801.597731030889	214.386086284715	1480.95164379348	1060.93877075256	140.922443019025	1611.30395253762
539.515519346068	142.297383264146	858.740859457027	840.856163342461	249.644871486717	1015.34816236084	590.144847827292	151.082403674188	815.557889228946	1237.39790651583	163.605725775429	1477.29719096397	1199.40716080292	140.004650252251	2016.31994566371	1099.88203407324	151.998672777103	1510.32169730464	482.174256138767	135.366689850085	700.572620322009	1099.28132235532	169.994022524852	1402.79574495355	627.933067839134	148.976220778044	825.975215673764	932.699821821486	184.416990919207	1110.69423924554	1137.94365862954	186.010422579711	1792.39189666868	1255.34695653474	148	1478.97775311747	940.046832708088	174.885042597189	1753.61291295538	1211.3601663494	136.500175604091	2056.88788226058	801.629763568851	214.265887659649	1481.35707360152	1060.82510409406	140.942876493951	1611.33084773639
539.530852136007	142.29351402259	858.716325220356	840.759706917618	249.357739986285	1015.13883217138	590.011018505463	151.061156926116	815.596530442524	1237.25257202423	163.522373611375	1477.35742083078	1199.59684457142	140.001327222897	2017.69184646002	1100.41078893957	151.995349747749	1511.96252504712	482.319411022913	135.374945807342	700.949727255617	1099.60939997092	169.982272722244	1404.55496190814	627.935986580064	148.95927654881	826.536132215943	933.038420800199	184.45148367847	1110.81377622956	1137.91071298072	185.998672777103	1793.31352873159	1255.78699678522	148	1479.55403976835	939.874861591399	174.828009925489	1753.33887683666	1211.42086893172	136.482022649101	2057.08196459618	801.588644429591	214.107777583966	1481.46751391858	1060.70000952688	140.951114333191	1611.09636441379
539.511579805581	142.273080547663	858.536439981048	840.630293515028	249.037667620722	1014.76583623726	589.84333094979	151.04072345119	815.418550326947	1237.00466585589	163.422618623116	1477.0513602157	1199.59615530224	140	2018.7476195121	1100.64607122738	151.988250197392	1513.21505936153	482.445742264648	135.375577895095	701.283392634263	1099.52021870591	169.958493500288	1405.82782011908	627.9955198295	148.938843073884	827.184099913971	933.461084300085	184.475092014856	1111.20363030119	1137.90908206313	185.984927168038	1794.38522768573	1256.30058632618	148	1480.42132559889	939.699140217529	174.764040860857	1752.74997880332	1211.50225009442	136.465078419867	2056.9280953461	801.502362648428	213.917770049098	1481.34435094966	1060.62158077399	140.947526746202	1610.67103557834
539.449379107215	142.238758811913	858.236652419244	840.471779354898	248.700491346808	1014.28293799875	589.638201738873	151.023779221956	815.065579120632	1236.65479428635	163.312992763535	1476.46752074539	1199.42487686527	140	2019.42280597403	1100.62151985224	151.976220778044	1514.03461951108	482.557396434811	135.365756974928	701.576964781483	1099.05953437269	169.917770049098	1406.50799858141	628.124808892478	148.917596325812	827.909154230121	933.946322186935	184.479895222227	1111.88133266235	1137.94965537817	185.963143752539	1795.59528153424	1256.88762127662	148	1481.59123125579	939.569118803915	174.700084261971	1751.99465959135	1211.6833078511	136.450768480583	2056.62049470204	801.407769928146	213.708656262201	1481.08210985808	1060.65180729085	140.934192821633	1610.16706492003
539.341703477257	142.195235687953	857.867015355817	840.290733494309	248.369165010371	1013.76226018537	589.390682885704	151.011749802608	814.592413606854	1236.20999559613	163.203231687234	1475.72520540864	1199.11430514468	140	2019.70106338269	1100.39640012935	151.957949325913	1514.43352389902	482.657792013963	135.344511905544	701.836698404981	1098.30625615517	169.856613122982	1406.56625309059	628.323496971178	148.898917788843	828.686787945318	934.455704760476	184.464187174027	1112.82293483793	1138.02545002331	185.930847074603	1796.89281726128	1257.52439002901	148	1483.02587841985	939.530837005942	174.644515778148	1751.25784873793	1212.03394982102	136.442878374755	2056.4056671537	801.342234721629	213.496571986537	1480.79571922919	1060.84430322668	140.916269102915	1609.72980205333
539.198487910591	142.148210852555	857.484106787498	840.108671248378	248.065223670469	1013.28038140563	589.104884120766	151.004650252251	814.057276796478	1235.7041651361	163.102663425828	1474.95826043457	1198.70780870221	140	2019.62225042928	1100.05074890364	151.934192821633	1514.48415270306	482.754660325081	135.315794602228	702.077748614764	1097.36247926483	169.774209448794	1406.05501972322	628.577225850085	148.8861026212	829.481734494158	934.939261592239	184.430125258311	1113.96047457886	1138.10829542615	185.886369820086	1798.18976769957	1258.16057200177	148	1484.63517166951	939.612851894611	174.604076543357	1750.7165045452	1212.59435891616	136.444115888193	2056.52399662679	801.33221901924	213.29879075553	1480.58912923206	1061.22730687698	140.898917788843	1609.50044527247
539.041721947221	142.103207600203	857.142169495917	839.961742456937	247.809895818011	1012.90851925588	588.800146445026	151.001327222897	813.516505978024	1235.20109024631	163.019852666802	1474.29846969648	1198.25273332737	140	2019.26277093119	1099.67300043546	151.905846523203	1514.29721977633	482.858661343202	135.284582948091	702.320576940377	1096.33871130297	169.673127237637	1405.09051800385	628.860736356312	148.881540282327	830.253642472647	935.343286906253	184.383480418776	1115.19089193481	1138.157005504	185.832660177739	1799.37560142332	1258.73025657072	148	1486.2897664506	939.825478720974	174.584069104803	1750.5154693202	1213.37188787075	136.458833745833	2057.17295669362	801.392782926894	213.130947673058	1480.54088560869	1061.79966679631	140.8861026212	1609.59338103829
538.90443922419	142.064502673146	856.881592154167	839.900372407977	247.621734262965	1012.69759061156	588.512314202387	151	813.015669016119	1234.79396128777	162.962560244641	1473.85569383822	1197.79490885097	140	2018.71796392429	1099.34513896569	151.875138566887	1513.99886914577	482.983620851573	135.255869119543	702.587428296158	1095.33916705276	169.559229858837	1403.82680736494	629.143177780988	148.886102621199	830.960980666937	935.617983200674	184.332233405327	1116.39423720284	1138.12150863808	185.775790663465	1800.33035511124	1259.16343231492	148	1487.84242459605	940.154572178275	174.585222383217	1750.74392781478	1214.33598738413	136.487898782562	2058.47073530139	801.522515838401	213.006715627925	1480.69542002981	1062.52725665896	140.881540282327	1610.07452834672
538.826549864644	142.035529024564	856.731330104557	839.983830139974	247.514086157857	1012.67886455008	588.289703098035	151	812.593920702687	1234.59573303045	162.934796584647	1473.72152306847	1197.38504786722	140	2018.08692317204	1099.15014133378	151.84537917001	1513.71877015646	483.147843481181	135.232177810965	702.901893681137	1094.47023685821	169.440770141163	1402.43818353627	629.397526140422	148.898917788843	831.568822957901	935.735460824497	184.284415003439	1117.45882563232	1137.96273155372	185.723863483927	1800.95203832779	1259.41043469327	148	1489.16199606555	940.570942129388	174.604865420138	1751.43214153091	1215.43079630572	136.529411110534	2060.44790781227	801.709826284997	212.936061756345	1481.06611793221	1063.35144266257	140.8861026212	1610.95384589634
538.843503811958	142.016400054859	856.70935715913	840.266922831421	247.494573717519	1012.86708827118	588.183171679221	151	812.287641518619	1234.71644799686	162.93935892352	1473.96411856151	1197.07344629135	140	2017.46570196539	1099.16193826411	151.820383356211	1513.57771152345	483.368848563416	135.213242582449	703.286558599142	1093.83285044399	169.32819998526	1401.10448652262	629.604973677734	148.917596325812	832.057198556824	935.695981021791	184.249119340425	1118.3104476785	1137.66351596159	185.685239229338	1801.18146481224	1259.45790489354	148	1490.16447957618	941.041269786171	174.637854242674	1752.55216714042	1216.59428162241	136.579773964817	2063.04882819625	801.94087887625	212.926484138412	1481.64255608178	1064.20729829242	140.898917788843	1612.18701163267
538.983572397223	142.005977475148	856.827308809418	840.791361043476	247.566036055071	1013.26437199879	588.237618699349	151	812.133404262992	1235.24289166388	162.975375412284	1474.62630486286	1196.90633667601	140	2016.93098228457	1099.4402672883	151.803698947011	1513.67111712132	483.661130491258	135.197890133747	703.757052399964	1093.52219454609	169.231768026354	1399.98966835083	629.764135563324	148.937515850987	832.426644974427	935.534660115621	184.231656354266	1118.92900030881	1137.23699328639	185.66656069237	1801.01836435156	1259.33641565887	148	1490.83057784727	941.533641026575	174.678039347749	1754.02998954687	1217.76804054383	136.634684168441	2066.14779537388	802.202110367071	212.980429842083	1482.3992854953	1065.03142190564	140.917596325812	1613.68563810307
539.25995055679	142.001327222897	857.093052648963	841.575840186433	247.724410757963	1013.86863603425	588.478746847668	151	812.16731992487	1236.21978410435	163.037203980873	1475.72629198453	1196.92628300515	140	2016.54658334692	1100.02803054451	151.797835577687	1514.06639905453	484.031437639583	135.184354809418	704.321177796101	1093.62336725688	169.161114154774	1399.22988831546	629.893653838281	148.95462629656	832.700713629149	935.315045014127	184.234891470242	1119.34787800838	1136.73240794868	185.671123031242	1800.52249696675	1259.11865582656	148	1491.20386279958	942.025428316087	174.719828163975	1755.76008860078	1218.90852955797	136.689527292496	2069.57352402935	802.484817376755	213.09513325312	1483.3036621646	1065.77637663392	140.938843073884	1615.33571832211
539.667895614586	142	857.515007594111	842.610901128451	247.961953949493	1014.67929738534	588.907553095452	151	812.425695440678	1237.63488888376	163.11925992165	1477.25696334527	1197.15908971094	140.001327222897	2016.35797883408	1100.93938664825	151.805026169908	1514.79440832182	484.476425155553	135.173587417265	704.978622076651	1094.1921627617	169.12506367351	1398.91509277317	630.026783301047	148.964470975436	832.920371291871	935.113880154997	184.257284255818	1119.63519720572	1136.22051573895	185.698054396982	1799.79918177038	1258.89652323268	148	1491.36682797987	942.501110290492	174.760717831503	1757.60662298913	1219.98737376593	136.740261638901	2073.11772419593	802.785020410043	213.261524723458	1484.30947461755	1066.41242947682	140.95927654881	1617.00198201628
540.184175479068	142	858.092567383991	843.859173551301	248.266436833569	1015.68962565593	589.498079980724	151	812.930081302947	1239.41817362182	163.211915359552	1479.17625899639	1197.60761396848	140.005977475148	2016.38300245892	1102.15222299771	151.826360831358	1515.83991991174	484.980351622054	135.16743329786	705.714816640934	1095.23878899474	169.129713925761	1399.0717890788	630.202790509654	148.964470975436	833.1328173327	935.000814553146	184.292670960696	1119.86320486358	1135.77687458142	185.743869243792	1798.96985822009	1258.7573054797	148	1491.40731939123	942.949620005426	174.801166473127	1759.41755150104	1220.98488137269	136.784766418268	2076.55542299094	803.100666864324	213.467035864261	1485.35834976429	1066.92556070832	140.976220778044	1618.54272772856
540.771779961074	142	858.813461935893	845.261187576707	248.625785489803	1016.88586621446	590.199299353445	151	813.679949503431	1241.45134984911	163.306157770812	1481.40605633394	1198.24503996932	140.016400054859	2016.61715133378	1103.60340643629	151.863106447765	1517.14873649525	485.514895190044	135.17128274271	706.50377764676	1096.7160551093	169.178841432529	1399.66682457691	630.457468833891	148.954626296559	833.376350338232	935.024997839188	184.333023960797	1120.08121152566	1135.46875088697	185.801687663788	1798.14329898003	1258.76719417513	148	1491.38894721501	943.358355105319	174.845467083388	1761.04093906385	1221.8829757744	136.823089553381	2079.6703856405	803.429276634195	213.69736790292	1486.38144680196	1067.3133061804	140.988250197392	1619.82997291505
541.382846431138	142.001327222897	859.652188039939	846.740267201122	249.026237226787	1018.2426813415	590.943291840784	151.001327222897	814.647028986057	1243.58054028262	163.393924591274	1483.83999764266	1199.02041875896	140.035529024564	2017.03668398248	1105.19967321366	151.916645066599	1518.63747159888	486.045615040148	135.189717352267	707.309752485176	1098.52380687623	169.273274526066	1400.61949561139	630.810311658365	148.937515850987	833.672936782844	935.210785970738	184.371617215767	1120.30355840763	1135.33952411814	185.864843455274	1797.39895348979	1258.95877641003	148	1491.33827481037	943.713184521741	174.899179646705	1762.33949468783	1222.66383475667	136.856345924096	2082.27698646313	803.76596590939	213.938843073884	1487.30130427573	1067.58182976385	140.995349747749	1620.76231568928
541.966555429517	142.004650252251	860.56610101356	848.216639803747	249.455441450509	1019.7212976139	591.654934784625	151.004650252251	815.771973939476	1245.64075782123	163.469643458514	1486.34748508429	1199.85840781924	140.065829896043	2017.60501776529	1106.82373506369	151.988076474105	1520.21116592093	486.534712622046	135.227117774103	708.091675641631	1100.51447146285	169.410429936162	1401.82841694385	631.262384782111	148.917596325812	834.024855769153	935.556917821886	184.403919455924	1120.50781289712	1135.40360717377	185.927093271276	1796.77690070652	1259.33465254043	148	1491.24709022873	943.997325299091	174.966743491343	1763.20304053384	1223.3072335771	136.885840763338	2084.23520627118	804.100091711083	214.178177748805	1488.03673398347	1067.74124629426	140.998672777103	1621.27407373481
542.476717399049	142.011749802608	861.499828505586	849.615444513253	249.900652096578	1021.27100923466	592.264792528933	151.011749802608	816.970355343853	1247.4791923794	163.531295382846	1488.79397305348	1200.67891446456	140.107857852454	2018.27885845815	1108.35850178653	152.077579698651	1521.78181387324	486.950501059613	135.285192539364	708.809547402245	1102.52084738474	169.584157018181	1403.1944174971	631.79495873609	148.898917788843	834.420231283547	936.04516510303	184.428484426176	1120.65668816494	1135.64648621805	185.984927168038	1796.2887655567	1259.87341390267	148	1491.09591959065	944.192553308525	175.051682698328	1763.56068289165	1223.79502087515	136.912946073561	2085.46940658372	804.416153512196	214.404779673273	1488.51411842031	1067.80372940224	141	1621.34433902031
542.875607510553	142.023779221956	862.395435929942	850.875527242064	250.35118374084	1022.837267995	592.718198315019	151.023779221956	818.144538933882	1248.9724899883	163.580476606909	1491.05539082782	1201.40432310547	140.159960655163	2019.00667254631	1109.70131566341	152.18373987712	1523.27491972501	487.271300705306	135.363467151963	709.426940220362	1104.37953121781	169.785020410043	1404.63334878843	632.377164671988	148.8861026212	834.841694376344	936.650518173131	184.449179758963	1120.72375927355	1136.03205643671	186.03737770416	1795.93381208175	1260.54460437576	148	1490.88147592992	944.286740843853	175.151556599585	1763.38320099495	1224.11760970044	136.937515850987	2085.96466248782	804.695498968209	214.607055767673	1488.67347173927	1067.78277551165	141	1620.98904161172
543.139103199374	142.042050674087	863.189842352953	851.956916019815	250.798100342837	1024.3559352208	592.984140243035	151.042050674087	819.191932369256	1250.04378734694	163.62171400785	1493.01996724715	1201.97429107803	140.219014909909	2019.72556746999	1110.78217691328	152.303093540407	1524.63433357924	487.490480918617	135.457082282644	709.916347798786	1105.9542071602	170	1406.0798703583	632.972079348226	148.881540282327	835.272691762145	937.346452184706	184.472644616634	1120.71035800285	1136.51070794623	186.087053926439	1795.70906699728	1261.31478285692	148	1490.63226950256	944.273296511763	175.26104286632	1762.68190437195	1224.27511932918	136.95927654881	2085.7586856668	804.917667062934	214.777032055653	1488.47741511968	1067.69029694153	141	1620.25036984639
543.256979187952	142.065807178367	863.829712661293	852.841115951018	251.235005980046	1025.76452992579	593.056611390611	151.065807178367	820.02195543944	1250.66589146464	163.661198149521	1494.60300530904	1202.35258432566	140.280809486	2020.36150031946	1111.56686094321	152.429020338555	1525.81886301874	487.614382521008	135.559317772215	710.259162398381	1107.15317185918	170.214979589957	1407.48353215843	633.544992478089	148.886102621199	835.700029903481	938.112008733412	184.508166400289	1120.66168665249	1137.02996076779	186.137938458618	1795.61936884911	1262.15635851983	148	1490.41759116385	944.156690432483	175.371617215767	1761.51318207492	1224.28013650812	136.976220778044	2084.93933308285	805.066310417777	214.911106079889	1487.92315927448	1067.53657005716	141	1619.19166552472
543.233811595096	142.094153476796	864.279014278632	853.530469124319	251.658984847096	1027.00847927402	592.952387005227	151.094153476797	820.569949379777	1250.85858874138	163.706398064032	1495.75049596673	1202.52671227544	140.340214948927	2020.83198472362	1112.05738488872	152.555906829483	1526.79887840074	487.657117960843	135.66163929289	710.443784572871	1107.93716783883	170.415842981819	1408.80025751956	634.069747912093	148.898917788843	836.112847269335	938.932596357678	184.565478481213	1120.6603408696	1137.54584821953	186.194800106805	1795.67293711496	1263.05026476483	148.001327222897	1490.33451803896	943.954825644812	175.474573327504	1759.97677573435	1224.16463379186	136.988250197392	2083.63539388633	805.133547567992	215.011233952973	1487.04520841747	1067.33549888387	141	1617.88860558093
543.089291473584	142.12618865601	864.517949292732	854.049174247968	252.07186942239	1028.0438168874	592.708373753316	151.12618865601	820.802401492596	1250.68633655585	163.763513841936	1496.43466659338	1202.50617556733	140.393644974534	2021.05741203324	1112.28279983092	152.677777489888	1527.55544720025	487.636251983629	135.755530911825	710.468007653987	1108.3179983024	170.590897286735	1409.99357041364	634.530543737923	148.917596325812	836.5040886671	939.800844216616	184.6532220302	1120.81658396759	1138.02949754709	186.261846594691	1795.88029175698	1263.98421286765	148.004650252251	1490.48901718071	943.696123411071	175.562294089242	1758.21207032238	1223.97158828467	136.995349747749	2082.01353904309	805.118428121702	215.084024272009	1485.91726613538	1067.10214757619	141	1616.42896669888
542.855459623372	142.159271082241	864.554985939497	854.438191994714	252.475498961751	1028.85067735792	592.37378674551	151.159271082241	820.725374544221	1250.24351319743	163.837043231104	1496.66505356596	1202.32026278589	140.438644752117	2020.97910148645	1112.29212593156	152.790609503652	1528.08034057224	487.569672501292	135.83536637491	710.338402976747	1108.35386612836	170.732702949082	1411.03254979894	634.925867113857	148.937515850987	836.86917942617	940.712829748688	184.774306872736	1121.23673575008	1138.47054171868	186.339687930007	1796.24161692888	1264.94884620143	148.011749802608	1490.96436545519	943.413411390238	175.63107656355	1756.37378911263	1223.75028249202	136.998672777103	2080.24888782155	805.026680407545	215.13906573691	1484.63154809075	1066.85295912496	141	1614.89667561192
542.572729086807	142.191366446397	864.415775609124	854.748573947193	252.875138566887	1029.43052713253	592.003055830468	151.192693669294	820.378458322316	1249.63981107431	163.928674485947	1496.47572879842	1202.00552150721	140.474717951056	2020.56478085871	1112.13776480719	152.892142147546	1528.36936699588	487.471372204027	135.897336574172	710.070247272754	1108.12751794331	170.838885845226	1411.8870589514	635.262504571642	148.95462629656	837.207674891913	941.658410942424	184.926281898014	1121.99853023693	1138.87088235106	186.42795497352	1796.74207822944	1265.92657937998	148.025106444853	1491.79678054434	943.141988630159	175.681558818065	1754.61775037368	1223.55095695366	137	2078.51223087877	804.86861111793	215.184691136332	1483.28776501267	1066.60705259435	141	1613.36781348146
542.283880168057	142.220080274945	864.14171023095	855.034900713583	253.274399508565	1029.80586174261	591.647609177881	151.224730527196	819.827040611222	1248.98619250199	164.035529024564	1495.92910142199	1201.60576669932	140.502904518937	2019.8251665164	1111.8725117386	152.982272722244	1528.4306611179	487.354940047477	135.941549271054	709.692024393637	1107.73381844533	170.911792573951	1412.53585766893	635.554353469536	148.964470975436	837.521631579849	942.617770493707	185.100130951944	1123.12633893969	1139.23770684592	186.523173815352	1797.34615080844	1266.88712933066	148.045373703441	1492.96043836048	942.907537835078	175.716906657237	1753.07359383682	1223.41096196979	137	2076.94243871221	804.655681880486	215.226858220107	1481.9743992092	1066.37998096636	141	1611.9012843767
542.027373619735	142.242887873503	863.779869497693	855.345375320971	253.676729280306	1030.01632957238	591.3491605487	151.254637676111	819.150688409368	1248.3771373351	164.153555464955	1495.10788632096	1201.1632108103	140.524499000422	2018.81823995549	1111.54314033436	153.060373877594	1528.2854673343	487.232183373187	135.970243302896	709.244320308764	1107.26245389726	170.958493500288	1412.97257952516	635.814463194661	148.964470975436	837.813922475108	943.558229452289	185.283441214118	1124.58047692479	1139.57877545815	186.62171400785	1797.99858262823	1267.78732481556	148.074233951621	1494.36526025554	942.728791086822	175.743513910331	1751.8380781343	1223.35092919702	137	2075.64025791784	804.402439543944	215.269860928402	1480.76400370971	1066.18270307404	141	1610.54297026504
541.830470857577	142.257457979105	863.374665768527	855.712345428991	254.084936148072	1030.10794952573	591.133040903458	151.281237201061	818.430542458109	1247.87864284111	164.275464873601	1494.10562034844	1200.71794112232	140.54185235232	2017.64887691061	1111.18826572019	153.127160545446	1527.97314387889	487.115050878411	135.986922974495	708.777149310762	1106.78964675591	170.986922974495	1413.21703412717	636.052646977085	148.954626296559	838.087580945359	944.440983667988	185.463871131053	1126.27063522802	1139.8968334519	186.719828163974	1798.63673778819	1268.57889360949	148.112160371292	1495.87825981069	942.616423709098	175.768620355184	1750.97507889542	1223.37527969873	137	2074.67369375275	804.127519353676	215.317235930948	1479.71646046137	1066.02416587518	141	1609.33689969429
541.709594221641	142.262020317978	862.969702895563	856.150009029343	254.500198321767	1030.13333881388	591.007231477561	151.302743769168	817.742801679595	1247.52377669645	164.393123783873	1493.02596243329	1200.31210186976	140.557904673767	2016.47071084723	1110.84642172471	153.183485885345	1527.56614643704	487.017317493144	135.995349747749	708.349187371708	1106.38321427738	171.007099550357	1413.3360100355	636.273593742367	148.937515850987	838.342064911303	945.230782667841	185.632403786447	1128.07412564706	1140.19130444004	186.815715948505	1799.19825268337	1269.21617887882	148.159532940102	1497.34819659509	942.576409790695	175.799136608139	1750.52780240725	1223.47552158677	137	2074.09269174875	803.855843473944	215.374772084055	1478.88951074477	1065.90872517202	141	1608.33608851654
541.666968080454	142.255703041147	862.60456460391	856.655653858994	254.922246578062	1030.14611893637	590.963285979564	151.316859967263	817.150003487922	1247.31557909927	164.500867043269	1491.97321297539	1199.98797832525	140.575629913695	2015.4713485077	1110.55630164102	153.231379644816	1527.16934893554	486.95263553449	135.998672777103	708.019866559807	1106.10109575519	171.028429474207	1413.44586697752	636.478344286286	148.917596325812	838.578521786525	945.908642019315	185.785959251402	1129.87311038718	1140.46272524212	186.909869425302	1799.64350938816	1269.67246989522	148.215233581732	1498.64347276685	942.616540912437	175.841345749942	1750.52003632209	1223.63900055639	137	2073.93553763597	803.620060382753	215.45166772238	1478.33817865865	1065.84134617472	141	1607.60434288981
541.698501339786	142.238758811913	862.315313695559	857.214187223243	255.350639566466	1030.19551601044	590.984134801324	151.322489708999	816.697463332833	1247.23464921528	164.594504891626	1491.03913737595	1199.7857226482	140.597499204746	2014.82431105596	1110.35751368291	153.273863596185	1526.89688989897	486.933407310551	136	707.834894845906	1105.99380758313	171.058450728946	1413.68760238879	636.666364014194	148.90024501174	838.798459028288	946.476958756557	185.925766048379	1131.57967933992	1140.71393275793	187.004650252251	1799.96420953168	1269.94023511072	148.278443090512	1499.67533312934	942.743626160068	175.899700837365	1750.95272430828	1223.85370149692	137	2074.22340066112	803.454493290958	215.558437492122	1478.10875551615	1065.82449556379	141	1607.20403770737
541.794940539602	142.21261319447	862.13395849778	857.79400718336	255.770950014924	1030.31064630082	591.049602508274	151.319672880774	816.407589275561	1247.25025316257	164.670472791843	1490.29414016623	1199.74159738576	140.623732531983	2014.65881473452	1110.28695205294	153.313259824478	1526.85065044027	486.968609281552	136	707.816438925937	1106.10162328743	171.102663425828	1414.2000037188	636.838170647339	148.89075287345	839.004290161242	946.960914953401	186.055179450969	1133.14772251573	1140.95600824681	187.103207600203	1800.18277041208	1270.03596748198	148.34528944147	1500.40686980711	942.963143944911	175.976047054757	1751.79646704187	1224.10782787516	136.998672777103	2074.94859868462	803.390945825367	215.706665500132	1478.22539390482	1065.8580053588	140.998672777103	1607.17703546447
541.94410265137	142.179704557167	862.08574785197	858.327222356206	256.130127130253	1030.47246403726	591.140930723279	151.310001990827	816.281252787268	1247.32191004474	164.722997797018	1489.77313952519	1199.87059533952	140.652480353028	2015.01902254759	1110.36122362221	153.34708010024	1527.0855984745	487.057278243589	135.998672777103	707.95489277578	1106.43681812101	171.160651956399	1415.07132324601	636.992678146501	148.893290084935	839.198297614493	947.392864363287	186.172997684759	1134.57392724016	1141.19978644961	187.206736050554	1800.35034490876	1269.9877148016	148.41101344406	1500.85455589986	943.273889931938	176.069152925397	1752.97363968575	1224.39065486297	136.994022524852	2076.04982224422	803.448414380218	215.904642520785	1478.66028764397	1065.93487898543	140.994022524852	1607.51461264741
542.132684680567	142.143132885243	862.178896464035	858.686682577354	256.32046971159	1030.58029032665	591.245783893218	151.295794404584	816.292429220007	1247.40411853063	164.737820348335	1489.461262458	1200.16387478003	140.676781031683	2015.82943863552	1110.56823866528	153.363657589515	1527.57189672962	487.188555432771	135.994022524852	708.200205226098	1106.97632820607	171.222554994041	1416.29816215334	637.129166651725	148.908554620259	839.383623768865	947.805863718373	186.270831335615	1135.88517407757	1141.45878546923	187.314917812068	1800.53706375884	1269.83258153293	148.467958202382	1501.07667074419	943.663438121895	176.173112149721	1754.35806741149	1224.69152852867	136.982272722244	2077.41335363471	803.622847815459	216.153839030037	1479.3228540583	1066.04029466003	140.982272722244	1608.14908264451
