Light	Light	Light	Light	Light	Light	Light	Light	Light	Light	Light	Light	Light	Light	Light	Light	Light	Light	Light	Light	Light	Light	Light	Light	Light	Light	Light	Light	Light	Light	Light	Light	Light	Light	Light	Light	Light	Light	Light	Light	Light	Light	Light	Light	Light	Light	Light	Light
Optode1-730nm	Optode1-Ambient	Optode1-850nm	Optode2-730nm	Optode2-Ambient	Optode2-850nm	Optode3-730nm	Optode3-Ambient	Optode3-850nm	Optode4-730nm	Optode4-Ambient	Optode4-850nm	Optode5-730nm	Optode5-Ambient	Optode5-850nm	Optode6-730nm	Optode6-Ambient	Optode6-850nm	Optode7-730nm	Optode7-Ambient	Optode7-850nm	Optode8-730nm	Optode8-Ambient	Optode8-850nm	Optode9-730nm	Optode9-Ambient	Optode9-850nm	Optode10-730nm	Optode10-Ambient	Optode10-850nm	Optode11-730nm	Optode11-Ambient	Optode11-850nm	Optode12-730nm	Optode12-Ambient	Optode12-850nm	Optode13-730nm	Optode13-Ambient	Optode13-850nm	Optode14-730nm	Optode14-Ambient	Optode14-850nm	Optode15-730nm	Optode15-Ambient	Optode15-850nm	Optode16-730nm	Optode16-Ambient	Optode16-850nm
400.203774154096	142.755103196764	732.080487718095	1316.07261496346	179.862416874843	1957.58679809817	1602.55105190168	142.988250197392	2725.25706114973	1903.30623536694	159.882067301247	2948.77823357897	1365.50733720467	132.204536192454	2593.64648078929	1311.39020768905	148.881540282327	2016.94875876882	738.76170518566	130.082403674188	1287.97101345926	936.780393111706	146.475874925436	1205.51339841269	934.919837771484	143.917596325812	1664.5417959465	643.730394666106	161	770.813913488012	1098.21285619955	155.002654445794	1730.2698933467	583.073686132151	149.102409434054	663.14659343372	1200.15342670345	144.001327222897	2223.79584042689	1309.90724813573	137.315372399762	2182.36333133165	986.296864083272	143.001327222897	2008.63783082519	1082.74547748979	148.001327222897	1624.21855805944
400.581884098293	142.729089737128	732.911368571311	1318.39014658295	179.869944140262	1960.81690958648	1604.25801201511	142.995349747749	2727.5307837138	1905.38259152762	159.853544085403	2951.63081900679	1366.46809081187	132.213237775275	2595.78451541382	1312.38966812319	148.886102621199	2018.23431405127	739.463942743734	130.101082211157	1289.33087511032	937.968998961676	146.547829827468	1206.94865042227	935.269383455802	143.897590565946	1665.35879209393	644.411391358546	161	771.918857033869	1098.52499882078	155.004650252251	1730.92576213225	583.116271575586	149.082403674188	663.607982379991	1199.7258132498	144	2222.74301460424	1309.3040079229	137.293192151356	2182.58788977229	986.141441573369	143	2008.9111503855	1082.73423051249	148	1625.2728553958
401	142.698757039074	733.863426540159	1321.15319811491	179.8861026212	1965.18941764869	1606.03485172494	142.998672777103	2730.09726577269	1907.54467446027	159.823618472186	2955.03091724023	1367.61215188931	132.22833609426	2598.6176413806	1313.44407497047	148.898917788843	2020.01736148933	740.328793247546	130.1138973788	1291.23551033928	939.439230810702	146.625583249405	1209.00237599372	935.774105521307	143.881452368949	1666.49443365066	645.289494047287	161	773.273423934577	1099.03368808957	155.011749802608	1731.72796438135	583.178968349555	149.061156926116	664.021896044465	1199.32639055716	144	2221.51204919522	1308.59276620065	137.280118046822	2182.5653881932	985.932883933166	143	2009.06048524826	1082.7120575467	148	1626.30326163849
401.419443124603	142.67348942673	734.798300537898	1324.06866486543	179.910513930909	1970.05052360256	1607.71869313454	143	2732.46512131754	1909.61464057256	159.799136608139	2958.46238672377	1368.78063349037	132.251306780671	2601.72395892545	1314.4247679013	148.917596325812	2022.06090440718	741.252393341684	130.118459717673	1293.43199070616	941.021883631396	146.702790459141	1211.40805569137	936.38753965618	143.869790479719	1667.8497386061	646.277072960905	161.001327222897	774.74896884827	1099.69863884437	155.025106444853	1732.59810451346	583.262498700346	149.042050674087	664.373710046698	1198.98950534464	144	2220.17878239157	1307.83548808529	137.279736254878	2182.29002889652	985.694641944155	143	2009.07775805669	1082.69202749427	148	1627.2135180279
401.803530543949	142.661910440119	735.603238286393	1326.85149837527	179.942609295065	1974.80692548272	1609.15833131924	143	2734.25369723597	1911.42739678126	159.785020410043	2961.50624320467	1369.84747848992	132.280171836025	2604.75695899184	1315.23881360757	148.938843073884	2024.17084430521	742.151566829814	130.1138973788	1295.71616578203	942.575391493175	146.775007614943	1213.93783513773	937.065469617466	143.860996176346	1669.36400191548	647.298079061236	161.004650252251	776.25865503323	1100.47359284125	155.045373703441	1733.50796650096	583.37563421192	149.028429474207	664.685435670301	1198.74701146686	144	2218.84767772471	1307.10590310166	137.29659460856	2181.81880370067	985.458835794291	143	2008.98849527995	1082.7016489327	148	1627.97061973891
402.122822653864	142.669795808345	736.204349552136	1329.26465399718	179.981321463032	1978.99421053113	1610.23941418053	143	2735.23716857908	1912.85997468877	159.785020410043	2963.88770854598	1370.73463052853	132.311263262974	2607.47463824395	1315.84221140549	148.95927654881	2026.21223878216	742.973663449386	130.101082211157	1297.95082140651	944.000583201092	146.83871212194	1216.42615428986	937.767098502569	143.853544085403	1671.02029297214	648.292455809824	161.011749802608	777.762460401233	1101.30923103911	155.072906728724	1734.47823837942	583.528689057915	149.023499605216	665.006551507864	1198.61401656351	144	2217.63089111577	1306.463085059	137.331523014614	2181.25342156348	985.251862968919	143	2008.8452145973	1082.768816679	148	1628.60358873641
402.357286187849	142.696727174085	736.573664141806	1331.14616144329	180.023328789219	1982.3257368899	1610.9004095908	143	2735.36799241425	1913.84571439349	159.799136608139	2965.50429689637	1371.41114205746	132.338620665087	2609.74009426824	1316.23636305473	148.976220778044	2028.10867019106	743.694508872115	130.082403674188	1300.05790550788	945.242492167754	146.892142147546	1218.76991695808	938.445846341219	143.844689597087	1672.81725836473	649.209955081535	161.023779221956	779.254302756461	1102.14434188157	155.106182896144	1735.54750910841	583.722117439428	149.028429474207	665.391732275505	1198.58796252178	144	2216.62567125079	1305.94633849932	137.383043109314	2180.71590567277	985.0919553128	143	2008.7121181683	1082.91735534017	148	1629.19466302914
402.501114208236	142.736564545747	736.730676300848	1332.4312284091	180.064490255292	1984.71598527036	1611.14688044397	143	2734.77840967548	1914.39063409704	159.824945695083	2966.43082293292	1371.88689307696	132.355484221852	2611.52682723314	1316.46404419195	148.988250197392	2029.85057582261	744.309868282104	130.061156926116	1302.01387219273	946.283426915035	146.934170103957	1220.92550772527	939.057852579261	143.832660177739	1674.75342130635	650.016084221689	161.04072345119	780.746993981091	1102.91877615281	155.141805662347	1736.75403063159	583.948132813081	149.042050674087	665.886220300257	1198.64989252037	144	2215.89973328144	1305.56962687966	137.445332480036	2180.32790483616	984.986127838434	143	2008.65693731092	1083.16377643783	148	1629.85791054457
402.561407788518	142.780637356678	736.735626267064	1333.15048399547	180.102842711336	1986.26944390168	1611.04676628779	143	2733.75142022888	1914.56501083757	159.858194337653	2966.89239960387	1372.20387737889	132.357218529586	2612.90218265633	1316.59703626947	148.995349747749	2031.47785752122	744.831303341687	130.04072345119	1303.83065876112	947.134451096031	146.964470975436	1222.89715078907	939.563347619047	143.817470886464	1676.81761476604	650.688115576561	161.061156926116	782.259854119472	1103.57923565818	155.175054304917	1738.1223848966	584.192121281055	149.061156926116	666.516814914008	1198.77498479397	144	2215.49958193463	1305.33108379061	137.512639563553	2180.20307713933	984.934421954612	143	2008.75083212662	1083.51851895942	148	1630.72330429824
402.558953149386	142.816237405204	736.677271575598	1333.42456955036	180.136819083182	1987.24165130282	1610.72510196487	143	2732.66291588742	1914.49914346902	159.893817103855	2967.21261903512	1372.4218553713	132.340626771366	2614.01817691497	1316.71751142534	148.998672777103	2033.08218029705	745.274479584681	130.023779221956	1305.55160247679	947.823944840757	146.983599945141	1224.72672364008	939.936370593405	143.801166473127	1678.9877376372	651.219882614238	161.082403674188	783.809395465089	1104.09152395491	155.200863391861	1739.66061793107	584.437643366038	149.082403674188	667.288601257141	1198.94357066302	144	2215.45422276236	1305.22315237273	137.577908395805	2180.43724103346	984.936890407839	143	2009.06191428364	1083.98955764004	148	1631.91134190224
402.524501038249	142.834161123923	736.659568050724	1333.43939070229	180.168216612421	1987.99224538603	1610.34442104103	143	2731.93311531237	1914.36427865295	159.927093271276	2967.76810418819	1372.61844184705	132.306595855269	2615.12067514435	1316.91559301902	149	2034.80880490246	745.663609944396	130.013077025505	1307.2539851883	948.394985670581	146.994022524852	1226.49541863504	940.176448030608	143.78738680553	1681.25166170664	651.626325946439	161.102409434054	785.411883030519	1104.45680708387	155.214979589957	1741.37693447618	584.6779675	149.101082211157	668.19551695934	1199.14959504008	144.001327222897	2215.79323995287	1305.24521015034	137.635319730963	2181.11190857895	984.998215140665	143.001327222897	2009.65895083009	1084.58580951522	148	1633.51866364577
402.494038861337	142.829246314037	736.786012973549	1333.41476811375	180.201663595838	1988.91942849893	1610.08152667344	143	2731.95779636429	1914.34989695548	159.954626296559	2968.9299406502	1372.87997392054	132.258785202002	2616.5205627239	1317.27449883368	149	2036.84002879303	746.030041174223	130.009300504501	1309.04728577935	948.901727129167	146.998672777103	1228.31355273826	940.311942031922	143.780370157792	1683.62424801043	651.942245057514	161.119874853948	787.084544313811	1104.71068421667	155.214979589957	1743.29593547117	584.91875328956	149.113897378801	669.22737600767	1199.40765252829	144.005977475148	2216.5583217238	1305.41034790905	137.682072767817	2182.29029265607	985.131846776914	143.005977475148	2010.60374886889	1085.31763179539	148.001327222897	1635.6027732829
402.502553410027	142.801576257739	737.148136977587	1333.56321691764	180.243141865278	1990.39988498624	1610.09590209903	143	2733.06329956875	1914.6314330044	159.974893555147	2971.02229997078	1373.30107498821	132.202962588463	2618.55943946485	1317.86889904712	149	2039.37056173709	746.417725967329	130.013077025505	1311.06650076462	949.412531540703	147	1230.30972641715	940.398570528971	143.782365964249	1686.1579302428	652.21980936493	161.136186995429	788.849527815796	1104.92058319982	155.200863391861	1745.46788173081	585.178396512388	149.118459717673	670.379737230421	1199.7452473694	144.016400054859	2217.80755912951	1305.73753312396	137.717719930383	2184.0153399743	985.351224343733	143.016400054859	2011.9458267088	1086.18907334103	148.004650252251	1638.17572025903
402.576522804013	142.758063385709	737.807978259895	1334.04811914927	180.298007707008	1992.71971957263	1610.49726287791	143.001327222897	2735.4450429873	1915.33377678623	159.989577420289	2974.26058849492	1373.97321027064	132.148233570231	2621.56782863731	1318.75585891054	149	2042.57798362502	746.88023782057	130.023779221956	1313.46231688726	950.000536776868	147	1232.61556297069	940.510050186589	143.794486355888	1688.931814844	652.518891551629	161.155403878512	790.731477231418	1105.17098113722	155.175054304917	1747.95938119357	585.484689749962	149.113897378801	671.652054631806	1200.19057339423	144.035529024564	2219.5954413834	1306.24234898468	137.745248218066	2186.2882737549	985.663467224288	143.035529024564	2013.69962448446	1087.19207434041	148.011749802608	1641.1941032406
402.728873017981	142.707463429068	738.794484403528	1334.95036080016	180.368029490836	1996.0418924428	1611.32157459343	143.004650252251	2739.15949735674	1916.5040980999	160	2978.74335180329	1374.9729940999	132.101336202931	2625.79362393395	1319.97013267257	149	2046.5830453626	747.474873184216	130.04072345119	1316.36968490521	950.737942185348	147	1235.339155976	940.724451741719	143.813195892475	1692.03363654242	652.897554380876	161.183312162058	792.751465206238	1105.54219306999	155.143132885243	1750.83647770582	585.866696426354	149.101082211157	673.048050304234	1200.76012430979	144.065829896043	2221.96732652078	1306.91940984771	137.768078880583	2189.07200133591	986.061030706587	143.065829896043	2015.84982702843	1088.29829435095	148.023779221956	1644.57118596155
402.95585930961	142.658805561588	740.093326239223	1336.25259570759	180.452519943772	2000.36474161603	1612.51873761442	143.011749802608	2744.09462721949	1918.09659528622	160.010422579711	2984.41376174049	1376.33971303429	132.070200531554	2631.32315005019	1321.51196181821	149.001327222897	2051.3992785886	748.248559898043	130.061156926116	1319.86540020968	951.676436247552	147	1238.52841142884	941.106008828349	143.834415115697	1695.52183725029	653.398115359554	161.225790551206	794.916084780529	1106.09343894575	155.112160371292	1754.13294253729	586.347413171796	149.083730897085	674.565808947462	1201.44477503168	144.106530629557	2224.91999010755	1307.73400925311	137.790621921506	2192.26719961044	986.516882345688	143.106530629557	2018.32915549197	1089.45764856822	148.04072345119	1648.17800470785
403.240194799608	142.621186988929	741.647838784433	1337.84606229879	180.546502604571	2005.52187478849	1613.9658362044	143.023779221956	2749.98407881396	1919.98340795536	160.023779221956	2991.06147638938	1378.05905464097	132.059513394207	2638.05488333408	1323.33985353941	149.004650252251	2056.9258261952	749.222466422296	130.082403674188	1323.94379037407	952.832051001516	147	1242.15781531915	941.687797668622	143.853093652666	1699.39331931375	654.035721300771	161.286947477323	797.206903895934	1106.84247024999	155.089306783583	1757.82111724586	586.935412627572	149.065807178367	676.189748836091	1202.21089468545	144.155310402913	2228.3978027735	1308.62526101365	137.814405881063	2195.73198123375	986.992552982269	143.155310402913	2021.03739589523	1090.60917535728	148.061156926116	1651.86723108702
403.552130308479	142.598216302518	743.359310031672	1339.55513984574	180.642960755922	2011.19413201043	1615.48651393926	143.04072345119	2756.41873019935	1921.97441272182	160.04072345119	2998.32370968017	1380.04996874683	132.071527754451	2645.6729171432	1325.3647048893	149.011749802608	2062.93640719808	750.377836067516	130.101082211157	1328.4882264059	954.168514478	147	1246.11103457437	942.459121951323	143.864609122262	1703.55888840736	654.790101354237	161.366268990656	799.571353654798	1107.75492196297	155.080902728005	1761.79176899836	587.617238644523	149.052473253798	677.885957980406	1203.00409547127	144.208592330198	2232.27792248369	1309.51656314182	137.839401694862	2199.28927504598	987.445237627772	143.208592330198	2023.85074423036	1091.68968646083	148.083730897085	1655.49125864738
403.859677353387	142.591871500837	745.107475408245	1341.17651156538	180.734284163753	2016.97692749491	1616.89090412471	143.061156926116	2762.92153951315	1923.86025000723	160.061156926116	3005.75308837481	1382.16155531377	132.107313678079	2653.66462284312	1327.4473245054	149.023779221956	2069.08969568366	751.647544613203	130.115224601697	1333.26668897257	955.592935225808	147	1250.18349139626	943.364549827616	143.86757237012	1707.82465952127	655.605922012416	161.458571887972	801.915602905712	1108.74763203324	155.089609117999	1765.83620708348	588.356289922016	149.047558443912	679.591747004818	1203.75650500042	144.261680516295	2236.37223221507	1310.32835397929	137.863388764279	2202.75093791526	987.837615935027	143.260353293398	2026.63976253444	1092.64566234146	148.105732463407	1658.91977188832
404.13027447877	142.600736358548	746.760926797224	1342.51544405901	180.814932899984	2022.43142000395	1618.00524801493	143.082403674188	2768.9933174314	1925.4413210523	160.082403674188	3012.85504231955	1384.18588637177	132.16463362509	2661.3887277495	1329.40719257755	149.04072345119	2074.97560274463	752.918463520279	130.123109969924	1337.95427476243	956.960639166226	147	1254.10602445099	944.305834862037	143.860734318485	1711.89555672962	656.397861049903	161.553252383689	804.10259021605	1109.6990856556	155.113630179914	1769.64639739329	589.094702551007	149.052473253798	681.212326503148	1204.39843955326	144.309914077449	2240.43493334759	1310.99356488978	137.882067301247	2205.9304662641	988.145693529537	143.305263825198	2029.28178468454	1093.44277422205	148.125647181409	1662.04594105549
404.338869508742	142.62198310662	748.202358575942	1343.41725524146	180.880392344938	2027.16454778443	1618.69884411364	143.102409434054	2774.19529571995	1926.55955067007	160.101082211157	3019.17403780259	1385.88246854417	132.238491613027	2668.1505067506	1331.03993947166	149.061156926116	2080.15543923453	754.042253745466	130.125647181409	1342.16826302204	958.091252232321	147	1257.57294358563	945.155287348313	143.845923344385	1715.4066964325	657.058601397633	161.636270990176	805.964805126333	1110.46290212106	155.148210852555	1772.84248136455	589.75580508783	149.065807178367	682.625194209455	1204.86561374902	144.350289795226	2244.17161502485	1311.46567948618	137.893469370443	2208.65232772929	988.360430621099	143.338539992618	2031.66596698013	1094.06704157037	148.142238939629	1664.78072934625
404.468112095334	142.652230260804	749.343193502495	1343.78825480577	180.929519851706	2030.87945671702	1618.90139247002	143.118547631051	2778.20058416748	1927.11513625405	160.1138973788	3024.34308460583	1387.02084023101	132.321960652251	2673.29046367844	1332.14949008514	149.082403674188	2084.21360091196	754.860628504527	130.124861433113	1345.51483279524	958.801533077603	147	1260.27895013537	945.774337359057	143.824416776278	1717.95971364893	657.475626872014	161.693306720789	807.315675941292	1110.89092067991	155.184813108242	1775.00521047314	590.254912365166	149.083730897085	683.686361716576	1205.10502932565	144.38056447426	2247.26922362833	1311.72170607995	137.896792399797	2210.76105345963	988.485406748024	143.356785252304	2033.69373763659	1094.52133771994	148.15462082999	1667.04862151933
404.510076534731	142.688334459362	750.130155875381	1343.60065708303	180.963143752539	2033.39127156074	1618.6021189329	143.130209520281	2780.8063708516	1927.07560121597	160.11978694057	3028.10609261123	1387.41528906259	132.405153203221	2676.28059053621	1332.57771851593	149.101082211157	2086.81309764591	755.230849398194	130.123127125378	1347.64693785516	958.934034331947	147	1261.96057876838	946.034789517851	143.79983925023	1719.19133305486	657.547415874293	161.713226245964	807.977730605056	1110.85644367984	155.214979589957	1775.74489885541	590.510950504606	149.101082211157	684.250210841454	1205.07659924497	144.399263641452	2249.41258969951	1311.75923834216	137.893817103856	2212.11233884666	988.531218081071	143.358540190262	2035.26829427384	1094.81689254943	148.162239137273	1668.76887283664
404.464842717242	142.727896903994	750.543692554484	1342.88868886446	180.982272722244	2034.62134744346	1617.85066079403	143.137676600757	2781.93238586804	1926.47680459645	160.118547631051	3030.32565747939	1386.95909883217	132.477087821313	2676.7959214123	1332.23158470265	149.113897378801	2087.7396527895	755.051334285364	130.122313852232	1348.31230195267	958.38569903487	147	1262.43101550116	945.840148968218	143.775790663465	1718.8333259832	657.197202530034	161.691979497892	807.808126194153	1110.2742235442	155.232357096474	1774.76553942185	590.459533256903	149.113897378801	684.192244202113	1204.7555246066	144.405580918282	2250.32282173999	1311.5894121407	137.887167986235	2212.57749414007	988.507257204099	143.345751215063	2036.29020617451	1094.96369030354	148.164807348377	1669.84728860374
404.338764692286	142.769379911035	750.591031525871	1341.727247857	180.988045049705	2034.56963481538	1616.73140516967	143.141805662347	2781.59081394423	1925.40185770639	160.112832013765	3030.96072920736	1385.63834337591	132.53000221848	2674.74851548249	1331.09836244166	149.11978694057	2086.92096469263	754.28025338783	130.124454348275	1347.38540586068	957.126752136813	147	1261.60214635733	945.143315769857	143.754029965642	1716.75726476247	656.388056005261	161.631620737925	806.723553641537	1109.11468405525	155.232357096474	1771.91832619667	590.065540362222	149.118459717673	683.433080827406	1204.13415601767	144.399263641452	2249.79457035515	1311.23386630256	137.881452368949	2212.0539858996	988.419853561432	143.321510219514	2036.66163124137	1094.96533945268	148.162239137273	1670.18417827279
404.14125365071	142.811868669578	750.291200297757	1340.20963430849	180.982272722244	2033.27328134707	1615.34167374921	143.143560600305	2779.84137964885	1923.96001597628	160.106182896144	3030.03435999942	1383.53687038232	132.558169834826	2670.30460685489	1329.25073243281	149.118547631051	2084.44181907646	752.942618333613	130.129511685363	1344.89092520361	955.206196136378	147	1259.50079008756	943.958279086836	143.736564545747	1713.01685163102	655.132656408255	161.541502581081	804.723464075657	1107.41394601201	155.214979589957	1767.25304895842	589.332918332944	149.113897378801	681.960681203598	1203.22424768092	144.38056447426	2247.73074968978	1310.71668664508	137.878885836533	2210.48291743126	988.266338727294	143.291232065711	2036.29928702563	1094.81597770666	148.15462082999	1669.68780133225
403.883101241883	142.853544085403	749.671631964741	1338.42564081234	180.964470975436	2030.7909564821	1613.77255336428	143.144887823202	2776.78031464275	1922.26413297221	160.103207600203	3027.62654988939	1380.81549091391	132.560966866345	2663.84959068939	1326.83225181483	149.112832013765	2080.52808795944	751.127648596343	130.137396984017	1340.99758898261	952.743887634209	147	1256.26523078779	942.362739488844	143.723334565122	1707.84020681218	653.49649434162	161.434792666016	801.899832881347	1105.27435833951	155.183485885345	1761.01584623888	588.310273934365	149.101082211157	679.840049912527	1202.0548169648	144.350289795226	2244.17986799902	1310.060884219	137.880125146052	2207.88159854222	988.036691688037	143.260171638382	2035.16204490051	1094.50042059206	148.142238939629	1668.30888574495
403.578082119091	142.892489880959	748.762547867765	1336.45692458692	180.934170103957	2027.19957860381	1612.10065492002	143.146455914597	2772.53445975899	1920.42338376921	160.106530629557	3023.87367676393	1377.6887695059	132.541502581081	2655.94924141054	1324.03907234954	149.106182896144	2075.53047160753	748.972988641219	130.14688919188	1336.00484148852	949.915175733819	147	1252.13723011519	940.489893103237	143.711569772982	1701.616179812	651.594822593321	161.325545539466	798.435269676579	1102.85160531724	155.143560600305	1753.63661393824	587.086328980774	149.082403674188	677.217028545791	1200.67779527488	144.309914077449	2239.34049281314	1309.29281024759	137.882517733985	2204.355231112	987.720897710987	143.232177810965	2033.26705866279	1094.00753002726	148.125647181409	1666.06191189653
403.243531036074	142.927093271276	747.604009297534	1334.37440237441	180.893469370443	2022.6073171699	1610.389892509	143.149426403365	2767.27925808107	1918.53750187358	160.117932698753	3018.97986403034	1374.40380481446	132.505446537596	2647.27936555916	1321.10304411466	149.101880377306	2069.88201629004	746.653321284434	130.155948052887	1330.30952368749	946.932573285647	147	1247.43872193519	938.515406139844	143.698228120269	1694.85521384402	649.582071487102	161.225790551206	794.593356080825	1100.3406058267	155.101880377306	1745.68479672218	585.781985100729	149.061156926116	674.3056061237	1199.16609962331	144.261680516295	2233.57961257399	1308.44304115054	137.882067301247	2200.13710159977	987.31301157771	143.20894006361	2030.72909739409	1093.33675542692	148.105732463407	1663.06891893704
402.899250404628	142.954626296559	746.248049646135	1332.25109541089	180.844689597087	2017.17146165177	1608.70213233893	143.153988742237	2761.24874932237	1916.7059318844	160.136611235721	3013.22176554287	1371.21178742934	132.459355202532	2638.55458549136	1318.26297017066	149.101880377306	2064.05778563066	744.356880472091	130.162239137273	1324.36635627871	944.025673694628	147	1242.54246109708	936.630939340089	143.680768262596	1688.13141553861	647.632855633106	161.143386877018	790.690380949001	1097.94869112067	155.064502673146	1737.80312015479	584.53069465743	149.04072345119	671.362478001973	1197.61463152028	144.209919553095	2227.38635623349	1307.55312522691	137.874340400738	2195.56590970482	986.822979392341	143.191241016127	2027.75456585098	1092.51242641635	148.083730897085	1659.55672765445
402.571181901842	142.974893555147	744.769249031495	1330.17541154036	180.792734892699	2011.13359110083	1607.11346595866	143.159271082241	2754.7647860195	1915.03741389301	160.159271082241	3006.9672960581	1368.34892774741	132.410341801587	2630.47555360844	1315.74613552376	149.107510119041	2058.54033661897	742.26852727719	130.164807348377	1318.65031798417	941.41696618748	147	1237.84310493669	935.021541547476	143.657344014961	1682.02044416195	645.920203444661	161.083557173799	787.061220074529	1095.87029232669	155.036856247461	1730.63238904359	583.461210503083	149.025106444853	668.656941110219	1196.13325184085	144.16128787806	2221.32235241163	1306.67843125997	137.857396171504	2191.060250507	986.279452320926	143.178639192132	2024.63054069499	1091.5885214366	148.061156926116	1655.84473453665
402.286457445024	142.988250197392	743.26162726492	1328.25426553248	180.744296958853	2004.81695822788	1605.71195140657	143.16356636017	2748.21564385536	1913.64404656701	160.180943866686	3000.64429217857	1366.02145874486	132.362928805848	2623.65195779987	1313.75008280884	149.117482266015	2053.76643493838	740.553076862764	130.162239137273	1313.60360085742	939.306639922567	147	1233.71015032817	933.843273019283	143.628884316131	1677.0302738809	644.59467994273	161.047483974859	784.016049584218	1094.26677998095	155.022377530006	1724.73444428351	582.677700708531	149.017727277756	666.429875842078	1194.83787104145	144.122930684416	2215.95593089054	1305.88704881381	137.832660177739	2187.07460415811	985.732648735145	143.171020884849	2021.69762868274	1090.64810096861	148.04072345119	1652.31476721063
402.070764961044	142.995349747749	741.840726458269	1326.60690763243	180.70648597741	1998.6299613797	1604.59452844184	143.164807348377	2742.05033904161	1912.63166644314	160.197628275886	2994.72750831689	1364.38706138091	132.320447288214	2618.54900973401	1312.42118291409	149.130297433659	2050.08423419283	739.338337931179	130.15462082999	1309.59276355323	937.849876133048	147	1230.45233221368	933.197391642817	143.598203884664	1673.55090604024	643.762300491456	161.035454555511	781.804238752014	1093.2418065801	155.022377530006	1720.53262320902	582.243100634406	149.021050307109	664.868519415658	1193.83741668512	144.101358920607	2211.79245676942	1305.25486969236	137.804764312047	2184.04255979247	985.246703252189	143.167345384482	2019.30798457012	1089.79532563874	148.023779221956	1649.36310776933
401.946328543219	142.997345554206	740.628693682552	1325.35389436374	180.685239229338	1993.0246101344	1603.85219277112	143.162239137273	2736.72410545654	1912.08482641835	160.206814674564	2989.68020815132	1363.54700216187	132.284827650498	2615.46410987867	1311.8445343938	149.143566162526	2047.72744946896	738.704011262121	130.142238939629	1306.87984319226	937.142686083165	147	1228.28744089049	933.126469633295	143.571609049424	1671.80011638975	643.475278545081	161.047483974859	780.577739009871	1092.83833512227	155.036856247461	1718.25541220935	582.174029807788	149.036856247461	664.073182082997	1193.21907574695	144.10003169771	2209.18935943518	1304.85643634688	137.780370157792	2182.29365307066	984.892652714167	143.166370632599	2017.75510696481	1089.14127355278	148.011749802608	1647.32885114043
401.928549514086	142.995349747749	739.747575120331	1324.60303215427	180.683938198886	1988.46190018039	1603.56227941097	143.15462082999	2732.66851005936	1912.06241771937	160.208050855597	2985.9238390367	1363.54450600069	132.254751781934	2614.51597379034	1312.04508558995	149.15462082999	2046.80384817506	738.679788665231	130.125647181409	1305.6042938584	937.21731728801	147	1227.32585620959	933.612160730342	143.554400321078	1671.81916462001	643.72833645331	161.082229950902	780.380120756699	1093.03573844993	155.064502673146	1717.93373143713	582.441923711659	149.064502673146	664.055010491135	1193.03586897417	144.118280432165	2208.33623770464	1304.74985041349	137.76631568063	2182.02566562239	984.7342785841	143.166889389524	2017.24971277042	1088.78443712193	148.004650252251	1646.46159102665
402.02276823621	142.988250197392	739.299382233495	1324.42674870345	180.702616735854	1985.34559312629	1603.76410116675	143.142238939629	2730.2347112965	1912.57617017684	160.204723088642	2983.78690365618	1364.35813828393	132.229373538537	2615.64207320649	1312.98287832689	149.162239137273	2047.287689289	739.242676631766	130.105732463407	1305.77172567047	938.037646981889	147	1227.56154449815	934.58328617277	143.550986319433	1673.47082241371	644.463927702309	161.13740940187	781.14343455474	1093.76310709478	155.101880377306	1719.40236419246	582.983244987598	149.101880377306	664.736883201395	1193.30267324748	144.149538075452	2209.21566126871	1304.97021669533	137.767642903526	2183.24930833773	984.818018374644	143.167461794171	2017.86392893048	1088.79604286287	148.001327222897	1646.8660286227
402.226602116839	142.976220778044	739.351262607598	1324.8559446731	180.737979682022	1983.96122508182	1604.45961786582	143.125647181409	2729.63800078165	1913.59621464586	160.199994533431	2983.45060471978	1365.90640258626	132.20818524536	2618.64085660038	1314.56087930842	149.164807348377	2049.04992130211	740.322458432519	130.085058119982	1307.27561496984	939.507030159212	147.001327222897	1228.89127594151	935.932890386963	143.563106711072	1676.47400106314	645.587432029381	161.209390496348	782.706913633316	1094.91317790936	155.143560600305	1722.3407361708	583.71364908199	149.143560600305	665.972087262129	1193.99081961888	144.184813108242	2211.63142661967	1305.51622321371	137.785020410043	2185.8017817113	985.16187571112	143.166889389524	2019.53276840458	1089.20507932214	148	1648.49838307543
402.52722049696	142.95927654881	739.921584462399	1325.86576979519	180.78554946679	1984.42560076209	1605.59945549975	143.107059686304	2730.91817754692	1915.04246278407	160.199095384734	2984.92122632939	1368.04989362715	132.191995834377	2623.19582191287	1316.63005816249	149.162239137273	2051.87444732871	741.811695772224	130.067134401264	1309.91437427647	941.477398680981	147.004650252251	1231.13111657076	937.530604202072	143.587226055761	1680.44706190776	646.977701589623	161.291343737799	784.846772371505	1096.35424372926	155.183485885345	1726.32221493033	584.540213316266	149.183485885345	667.571495577162	1195.03739502892	144.214979589957	2215.24800103153	1306.35165601289	137.815186891758	2189.37037347885	985.750566171976	143.166370632599	2022.06414685668	1089.99412697373	148	1651.17433937595
402.905071311944	142.938843073884	740.973555039211	1327.37637955679	180.839065367948	1986.66235201202	1607.0868394925	143.088381149336	2733.9240433341	1916.79171649318	160.204986625192	2988.01940756967	1370.60181748136	132.182770687457	2628.88604127752	1319.0008955643	149.15462082999	2055.46875186897	743.573325497546	130.057123506049	1313.40689889341	943.764241511206	147.011749802608	1234.0317754863	939.238771881083	143.618637359591	1684.95234830651	648.504050407868	161.376267468017	787.304248907517	1097.94542393689	155.214979589957	1730.86029360153	585.372493409574	149.214979589957	669.327383442126	1196.34385497138	144.23368431937	2219.63328479913	1307.39789604037	137.851789147445	2193.5307855009	986.532330135664	143.166018161585	2025.16209928168	1091.09370563866	148	1654.59189572402
403.332850237511	142.917596325812	742.413971368572	1329.25355320384	180.893817103856	1990.39150132624	1608.78482636605	143.072906728724	2738.31132753803	1918.68354752156	160.219362643322	2992.38413374315	1373.34062411643	132.183745439341	2635.21892233183	1321.46036664727	149.142238939629	2059.49233358476	745.455587081466	130.05930824652	1317.41938725195	946.163901217319	147.023779221956	1237.30573681692	940.921290154	143.650131064203	1689.54238409114	650.036104833143	161.45734948153	789.819096181116	1099.54316844416	155.23368431937	1735.45783682125	586.130411403003	149.232357096474	671.03770487565	1197.78238934387	144.237007348724	2224.31590037505	1308.5363287412	137.886369820086	2197.8031653363	987.41945783825	143.167697855495	2028.46903422372	1092.38718688455	148	1658.37237803872
403.780543881079	142.898917788843	744.104665295119	1331.32231557156	180.946222240981	1995.15981589408	1610.53133997532	143.065829896043	2743.57923107487	1920.54123713982	160.242211423857	2997.51496504568	1376.02874343295	132.196127329702	2641.66420178937	1323.79126513033	149.125647181409	2063.58762579293	747.300584863465	130.076252475754	1321.59322580702	948.470711969467	147.04072345119	1240.65087646994	942.45175848499	143.677349774827	1693.81171139129	651.452209342508	161.528239414436	792.15601734246	1101.00976451107	155.237007348724	1739.66260640075	586.74792344978	149.232357096474	672.530785902121	1199.21147069884	144.228056615462	2228.83901002453	1309.6277255031	137.911718104898	2201.71452761809	988.305375983297	143.172866864671	2031.61830166519	1093.72920189523	148	1662.10906751397
404.215575515709	142.8861026212	745.873560032923	1333.38148736489	180.994022524852	2000.38252793138	1612.15727434605	143.069152925397	2749.1150299613	1922.18760875162	160.271343540155	3002.81226593702	1378.43791753867	132.219362643322	2647.67167389928	1325.79550999412	149.105732463407	2067.39203490766	748.961124870682	130.106530629557	1325.56252277061	950.497768148324	147.061156926116	1243.76726120347	943.723924522135	143.69823368249	1697.42453649702	652.648827445876	161.586073311198	794.123674882842	1102.22184726908	155.226729392565	1743.09929751879	587.177722899146	149.214979589957	673.678671311412	1200.49064012116	144.213242582449	2232.81443327014	1310.53193752484	137.923747524246	2204.86796089889	989.079632476537	143.183861849029	2034.28517371046	1094.96687038006	148	1665.42443179193
404.606334770351	142.881540282327	747.538339112973	1335.22424854474	181.036050481263	2005.4199943987	1613.50627909415	143.084656531333	2754.27364280494	1923.46752771953	160.30428637354	3007.65617722348	1380.37113466003	132.252397942243	2652.72482509571	1327.3132339049	149.083730897085	2070.57395436525	750.311280508554	130.144887823201	1328.98717094318	952.094327097837	147.082403674188	1246.38602499239	944.658805114324	143.714540261749	1700.14811915169	653.548062554186	161.629883730417	795.59010723071	1103.08437937462	155.207265107301	1745.5104768552	587.393772812936	149.183485885345	674.408438124719	1201.50275352984	144.20201132925	2235.95662724799	1311.13537072597	137.922443019025	2206.98958527747	989.651798665702	143.203745636985	2036.231442599	1095.96829935116	148.001327222897	1668.01939389525
404.924584786705	142.886102621199	748.928815053083	1336.66521327305	181.07065387158	2009.66305766711	1614.45777364257	143.110833148395	2758.46404189838	1924.26907307549	160.33756254096	3011.48735411478	1381.68342128086	132.290016514902	2656.40796767971	1328.24056316122	149.061156926116	2072.87691989671	751.257392769797	130.183485885345	1331.59450887969	953.157944342772	147.101082211157	1248.30051457258	945.215486826044	143.730786656065	1701.87492791392	654.10658466356	161.661633730669	796.494753531297	1103.54356562865	155.185611274391	1746.78621203075	587.39603501839	149.144887823201	674.706648766875	1202.17440098537	144.204543803134	2238.11387431489	1311.375014285	137.911618850664	2207.96734911436	989.969436515174	143.236850780892	2037.33618655733	1096.64650244871	148.005977475148	1669.71223912988
405.150456661696	142.898917788843	749.913876383402	1337.56448672167	181.096431958906	2012.62128976927	1614.93816363375	143.143132885243	2761.23283348879	1924.53468862439	160.369102721958	3013.87927227764	1382.30074269596	132.328609769871	2658.45742476025	1328.54208463307	149.04072345119	2074.1478354058	751.750101165316	130.214979589957	1333.20976970815	953.649239705486	147.113897378801	1249.39059737929	945.39496960685	143.751242848668	1702.62530485799	654.320696321705	161.685412952625	796.85115168784	1103.59434525964	155.16901477857	1746.96822679335	587.209550249965	149.106530629557	674.618489930017	1202.48962113844	144.229136298236	2239.28062637419	1311.2568418395	137.897590565946	2207.86382337765	990.030013429914	143.285625816647	2037.61210672326	1096.97672175485	148.016400054859	1670.4629109081
405.274196019599	142.917596325812	750.414785009901	1337.85086293648	181.112570155904	2013.99228741013	1614.93216109402	143.175054304917	2762.32245220123	1924.27114459952	160.396809536171	3014.5950125856	1382.23189101818	132.362319214574	2658.81127615388	1328.2558851356	149.023779221956	2074.35888907273	751.790926195406	130.232357096474	1333.78553819799	953.595387935824	147.118459717673	1249.64072102581	945.24420997135	143.779042934895	1702.5458700608	654.229391131162	161.704808983274	796.743716467437	1103.2850851832	155.163306402193	1746.25075286091	586.882830094654	149.076252475754	674.241545742782	1202.49383249268	144.279998112739	2239.58982392996	1310.85484704334	137.8861026212	2206.90131128508	989.880060215165	143.350110509718	2037.19536913398	1097.00086811104	148.036856247461	1670.37455258959
405.299473280449	142.938843073884	750.427674435942	1337.53927409509	181.118459717673	2013.72076627765	1614.49123271568	143.200863391861	2761.73087838724	1923.55704193187	160.420226035183	3013.64241821798	1381.56663353147	132.387239784325	2657.62779112402	1327.4877025864	149.013077025505	2073.61366004144	751.433209233583	130.23368431937	1333.41387740408	953.085003488458	147.113897378801	1249.14848095344	944.850040133135	143.815186891758	1701.88367312468	653.910917442512	161.723482713068	796.316260027087	1102.71210167452	155.173467483182	1744.94398658492	586.482676191698	149.05930824652	673.707069347366	1202.27712117143	144.356087984866	2239.28287361633	1310.29023356968	137.881540282327	2205.41894270306	989.599646253173	143.42795497352	2036.31452387633	1096.80802188729	148.070480148294	1669.66839164871
405.243904658684	142.95927654881	750.018044196992	1336.73291848089	181.115224601697	2012.00322793534	1613.7234392052	143.216306812854	2759.70714676718	1922.52889499006	160.440422407751	3011.26838958793	1380.47131838741	132.400661622272	2655.27927039034	1326.40182650492	149.009300504501	2072.14212362969	750.779785611129	130.219629842208	1332.31798749662	952.26274631233	147.101082211157	1248.11349932135	944.327446122062	143.856439399695	1700.94468024359	653.47110500514	161.742280163034	795.747885356801	1102.00604409987	155.199450359056	1743.4215306317	586.085220960823	149.057123506049	673.159832418608	1201.95905751563	144.451309955184	2238.65473890543	1309.70884382785	137.8861026212	2203.79332843165	989.285756554705	143.512751235641	2035.23313310672	1096.51908554061	148.119607655062	1668.63058575762
405.136893552235	142.976220778044	749.313463873122	1335.61394065978	181.105732463407	2009.25181912113	1612.78562129459	143.219629842208	2756.70294911162	1921.37040275564	160.458121455235	3007.91405946002	1379.16375817797	132.402076554962	2652.28886459883	1325.19619387239	149.013077025505	2070.25802224212	749.968928497853	130.195235687953	1330.81663533027	951.306722852519	147.082403674188	1246.8069308406	943.803257893182	143.898119622694	1700.0493413363	653.029318702188	161.760443021937	795.227480491199	1101.30930819379	155.238067372735	1742.0630718153	585.766591827404	149.067134401264	672.736626776881	1201.65876646618	144.555994742861	2238.01045604182	1309.24566009853	137.898917788843	2202.3884296457	989.026783539161	143.596607562997	2034.21114774822	1096.25485257248	148.183739877119	1667.56793647529
405.013089443359	142.988250197392	748.47790791588	1334.41095402167	181.094153476796	2006.0219953611	1611.85183353106	143.21261319447	2753.29528691531	1920.27359010654	160.475091876914	3004.1396143233	1377.88504963275	132.394069214826	2649.25869161935	1324.0739839365	149.023779221956	2068.31899152634	749.157928729279	130.167339822261	1329.2788529633	950.407952300878	147.061156926116	1245.53358758978	943.397671200216	143.935497326854	1699.47948230367	652.700485727307	161.776314157991	794.926490152892	1100.75805432507	155.282564423958	1741.18970945765	585.59149338179	149.083730897085	672.546910748141	1201.48196131264	144.660312069993	2237.61292069017	1309.00730137534	137.917596325812	2201.48938922448	988.893224800131	143.673127237637	2033.45544976268	1096.12138364671	148.261065583996	1666.75263105547
404.908751298435	142.995349747749	747.685649372527	1333.36392988585	181.086263370969	2002.92181039103	1611.09550140078	143.198833526873	2750.09119069371	1919.41930702545	160.491937764851	3000.5364019911	1376.85748481277	132.382689863306	2646.77369590485	1323.20975577747	149.042050674087	2066.67131776362	748.49486623049	130.142603828496	1328.06700194313	949.737079791445	147.04072345119	1244.5859313425	943.200131678346	143.964470975436	1699.43619357168	652.57467040085	161.789416670519	794.974430985101	1100.45192031615	155.325291547692	1741.01565563424	585.602743652167	149.102409434054	672.659106574207	1201.49879812667	144.755530911825	2237.64274676805	1309.05086551449	137.938843073884	2201.26129883511	988.92210159937	143.736831744634	2033.09077177884	1096.18858727703	148.34528944147	1666.3801284865
404.856366179211	142.998672777103	747.092084243612	1332.68586060965	181.087424377527	2000.51240509633	1610.66039297248	143.183856336433	2747.63370560757	1918.94714604667	160.509389458046	2997.63481817222	1376.25807963563	132.373223917461	2645.33252127755	1322.73229117802	149.065807178367	2065.61753660696	748.102211144535	130.125659599262	1327.49120508195	949.427782501338	147.023779221956	1244.20747260343	943.264210934087	143.983599945141	1700.01712209852	652.706715382985	161.800114059796	795.443545441879	1100.44867659576	155.358540190262	1741.62527118567	585.816147402106	149.118547631051	673.09261808578	1201.73996569796	144.83536637491	2238.18394745128	1309.3804102974	137.95927654881	2201.73962403967	989.118602799017	143.785959251402	2033.15270435277	1096.48532802184	148.429718173473	1666.55047803376
404.878504569032	143	746.811582008319	1332.52496138934	181.101336202931	1999.22530296037	1610.64083894265	143.171990074511	2746.32628003142	1918.93412673553	160.52823115244	2995.83375453412	1376.18739009286	132.371871207541	2645.2693300401	1322.70436782647	149.094153476797	2065.3740381965	748.05458027113	130.117932698753	1327.76357426607	949.550827479144	147.011749802608	1244.55785480833	943.594190260768	143.994022524852	1701.22095106947	653.108680403802	161.810536639507	796.349730611297	1100.75222776728	155.377244919675	1742.98486010284	586.218426032161	149.130209520281	673.829370316973	1202.19661808594	144.897336574172	2239.23204717589	1309.95515117697	137.976220778044	2202.84718414837	989.458967920037	143.821338090192	2033.60275232322	1097.00086120732	148.506756605039	1667.2714322349
404.987467341242	143	746.902629827448	1332.94364470178	181.131009724258	1999.30928384266	1611.06767135807	143.167060205521	2746.39148518109	1919.38761904841	160.548978095123	2995.36318819676	1376.65943522114	132.381870879365	2646.71177360907	1323.11715911454	149.124861433113	2066.04481083567	748.369465713476	130.117482266015	1328.97129528316	950.108742255829	147.004650252251	1245.69133463288	944.15396124933	143.997345554206	1702.94743216815	653.752691501599	161.822291249289	797.647151822455	1101.32200965106	155.378813011071	1744.94823422322	586.770996487818	149.137676600757	674.811187126289	1202.83035779942	144.941549271054	2240.70614506971	1310.70397450306	137.988250197392	2204.42168700082	989.901219215211	143.845923344385	2034.34596182338	1097.69417080399	148.570813583048	1668.46854661304
405.18376839423	143	747.365249983126	1333.9180410232	181.174885388804	2000.80767442524	1611.91313428294	143.170235136553	2747.85099723655	1920.25606572886	160.5702797887	2996.2622158283	1377.61345248201	132.4047196599	2649.59070831897	1323.90703972508	149.15462082999	2067.62389883445	749.014751026228	130.119874853948	1331.0799260382	951.044100638494	147.001327222897	1247.56163805721	944.874626038109	143.995349747749	1705.04283944748	654.576923602504	161.836166578886	799.249340779741	1102.08351435034	155.365733216219	1747.31637458283	587.41693443023	149.141805662347	675.961028855687	1203.58432928936	144.970243302896	2242.49723716095	1311.5407594518	137.995349747749	2206.27798315133	990.394860129435	143.863813004571	2035.27590945238	1098.50480743552	148.619588618803	1670.02985348124
405.455259465227	143	748.147357166621	1335.34703185148	181.228854781612	2003.57425708712	1613.09259057912	143.179727274843	2750.54788003464	1921.43374917658	160.590740718903	2998.40308585861	1378.92811216697	132.438228122505	2653.63624463257	1324.96557550947	149.180943866686	2069.98186237925	749.914890007154	130.121114163467	1333.93109545478	952.250192450061	147	1250.02343771444	945.667637932112	143.988250197392	1707.32257785018	655.500028211191	161.850573596635	801.03911991519	1102.94292908243	155.34345210273	1749.86498355181	588.088815226508	149.144887823201	677.188515763617	1204.40021881662	144.986922974495	2244.48565481661	1312.38360206569	137.998672777103	2208.23577667238	990.892910199947	143.880125146052	2036.29160642839	1099.37046211952	148.654448700669	1671.82427738158
405.780719929031	143	749.157282313157	1337.07805286816	181.285799539934	2007.31002635903	1614.48665449654	143.191366446397	2754.17557689165	1922.7880587629	160.607223883897	3001.51395099825	1380.45600639613	132.479742129164	2658.44387338763	1326.17036157293	149.20095130524	2072.89869084171	750.971774221375	130.118547631051	1337.28061005796	953.599268201575	147	1252.86501401991	946.444457973774	143.976220778044	1709.611255652	656.435768473196	161.863388764279	802.890792676988	1103.80888481852	155.320558960301	1752.3934876965	588.723305020638	149.148210852555	678.40527888231	1205.22072479421	144.995349747749	2246.56096568198	1313.15993409463	138	2210.14715453114	991.354272599418	143.897590565946	2037.31386296581	1100.23004611651	148.679788773111	1673.72732119695
406.131810797696	143	750.282884621889	1338.94017491995	181.339433938232	2011.62180709502	1615.96229186949	143.20095130524	2758.33337843018	1924.1833347445	160.61661500155	3005.2312907955	1382.04747948337	132.524908123086	2663.54725749662	1327.40195898502	149.213914224921	2076.10049831241	752.081710858345	130.112832013765	1340.83988990496	954.961476722594	147.001327222897	1255.84506717613	947.129359327129	143.95927654881	1711.76567275398	657.305082436802	161.872222622371	804.686615034358	1104.60320919475	155.306953237188	1754.75032321257	589.267704732642	149.153555464955	679.535339951397	1206.00346238732	144.998672777103	2248.63496507635	1313.82102121599	138	2211.90987771083	991.753482829548	143.917596325812	2038.29300422645	1101.03964040272	148.700246644401	1675.6351633684
406.47754408231	143	751.407179919756	1340.76499971612	181.383196202378	2016.08295860634	1617.38629529828	143.20349164521	2762.57953001522	1925.4923100782	160.615286099965	3009.14575801087	1383.57296318878	132.57019865075	2668.46994442825	1328.55830889694	149.220080274945	2079.2879552787	753.149662019941	130.106182896144	1344.30699217612	956.223969192046	147.004650252251	1258.7189909091	947.670506477535	143.938843073884	1713.69594043226	658.047332971517	161.876358924871	806.329725379701	1105.27346400459	155.311539972424	1756.85284525695	589.687815329597	149.161455822713	680.525043373969	1206.71913822216	145	2250.64238801396	1314.34317959042	138	2213.46987968848	992.080405516027	143.938843073884	2039.20668574692	1101.77396622859	148.720854063811	1677.47402612577
406.788149598937	143	752.429564739975	1342.40732254371	181.414891722606	2020.29960112114	1618.64599924168	143.196301052989	2766.50662228815	1926.61279754332	160.601998164547	3012.87247612435	1384.93127552884	132.611960011698	2672.79935796384	1329.55966592375	149.220340094979	2082.17753884277	754.097951811926	130.101880377306	1347.40857256723	957.299116223601	147.011749802608	1261.27504501714	948.04849641181	143.917596325812	1715.37193898293	658.625263725859	161.876872874622	807.756245120573	1105.79877084581	155.341155038855	1758.69011091752	589.972772203546	149.170932971471	681.347512295721	1207.34447066107	145	2252.53757178068	1314.7169357459	138	2214.81275116144	992.333050566953	143.95927654881	2040.05339224627	1102.41985050162	148.743601823709	1679.20098501807
407.040688078447	143	753.279531855681	1343.75837742648	181.434775510561	2023.96261461355	1619.65942639317	143.179616643789	2769.79898483917	1927.47619060005	160.576581172908	3016.10332294102	1386.05631191301	132.646823152477	2676.24668392879	1330.35204670013	149.217104979004	2084.54997191437	754.870840827813	130.101880377306	1349.93616140973	958.132669205215	147.023779221956	1263.36110362485	948.270118759011	143.898917788843	1716.815318122	659.02651219205	161.876465789784	808.934697812426	1106.18676382561	155.396811436055	1760.31023620723	590.131508054496	149.181031780064	682.002249112338	1207.86593307566	145	2254.28900087192	1314.95220470863	138	2215.95065528244	992.519624545145	143.976220778044	2040.84261014089	1102.97924694656	148.768169922447	1680.80009081678
407.220392635614	143	753.923823950463	1344.74836387633	181.447180118599	2026.87807557204	1620.37708711361	143.155948052887	2772.27620437682	1928.0432718423	160.542638100616	3018.6446934807	1386.90953160034	132.671014266444	2678.6667440276	1330.90063636943	149.211915359552	2086.26739449013	755.433932328156	130.106182896144	1351.76345448674	958.697165542011	147.04072345119	1264.89397362665	948.362072218985	143.884775398303	1718.08054303288	659.256923470991	161.879003070842	809.863577176441	1106.46165348396	155.473761954243	1761.79034439476	590.189488474696	149.189463360493	682.509837076135	1208.27278627314	145	2255.88415730053	1315.06695428219	138	2216.92587663528	992.65042189902	143.988250197392	2041.59737231598	1103.46245948471	148.792387159287	1682.28476842
407.323600235817	143	754.368116586645	1345.34698932188	181.457361899384	2028.97693847497	1620.79108024749	143.129511685363	2773.9129562848	1928.30862432111	160.50501959753	3020.43746479579	1387.47657146589	132.68409602955	2680.06879729373	1331.18847832622	149.206985490561	2087.28956878683	755.772117412095	130.112832013765	1352.85649772284	958.990870730181	147.061156926116	1265.86595947549	948.361426259123	143.876890030076	1719.23061151267	659.336247807778	161.888639832684	810.562523401907	1106.65643178693	155.563094293218	1763.20831058882	590.180006400768	149.195235687953	682.90443749997	1208.5611830668	145	2257.32351749189	1315.08814400977	138	2217.79524454337	992.740762652111	143.995349747749	2042.34598470829	1103.88554157257	148.814388725609	1683.68685763417
407.356609204351	143	754.647397851652	1345.55921008663	181.471219110963	2030.30172593332	1620.92249081896	143.105903279405	2774.82127003738	1928.28936681019	160.470791395902	3021.54247717563	1387.76625402675	132.68539579717	2680.60478980547	1331.21889120483	149.203483779123	2087.67561904396	755.888588785417	130.118547631051	1353.27555497734	959.032223854775	147.082403674188	1266.3379878893	948.301525592271	143.874352818591	1720.31828449401	659.287164339729	161.908554620259	811.063526399172	1106.79871449392	155.653212519636	1764.61609120919	590.135205654852	149.20016074977	683.222911383699	1208.73055935338	145	2258.62599765774	1315.04372527752	138	2218.6335211123	992.803867108076	143.998672777103	2043.12581428728	1104.26417600356	148.831332954842	1685.05462352169
407.334835437359	143	754.817728683835	1345.42113311522	181.49243492899	2030.9815538103	1620.82061661093	143.089586400323	2775.21631074752	1928.02629569639	160.447952867298	3022.11396172019	1387.80747866087	132.67737040505	2680.52666717252	1331.01495922631	149.20123384295	2087.56480942851	755.802216620825	130.11978694057	1353.15610550932	958.854764343676	147.101082211157	1266.42236015009	948.205172209483	143.875138566887	1721.36445893698	659.130116929308	161.939641240033	811.399588020988	1106.89884076023	155.731751689869	1766.01443435161	590.079603178531	149.204556872303	683.494491012218	1208.78702506112	145	2259.81607040148	1314.96397291831	138	2219.51272453682	992.853922818434	144	2043.97303766393	1104.61311308653	148.841794282795	1686.43439772507
407.27673434171	143	754.939334354751	1344.99193289485	181.523196533028	2031.19872512797	1620.54746978757	143.084101348174	2775.36677870354	1927.57028272715	160.443076715603	3022.36208356798	1387.64516149858	132.664171766774	2680.12554973757	1330.61807166512	149.198833526873	2087.1382790261	755.547198887673	130.1138973788	1352.67796668826	958.501536995984	147.113897378801	1266.25344080912	948.085824861731	143.876872874622	1722.35368758008	658.882284069187	161.978753251928	811.596626908343	1106.95770001673	155.788665448573	1767.35233945075	590.028358716283	149.210583329481	683.735597197908	1208.74212031507	145	2260.90962331071	1314.87379832445	138	2220.48055075556	992.9022153808	143.998672777103	2044.90620261878	1104.94311255528	148.844596121488	1687.85360099022
407.2034130212	143	755.069141001064	1344.34887446658	181.561762332721	2031.15891879672	1620.17059645614	143.089586400323	2775.53773509462	1926.98141163539	160.459702669906	3022.50832825786	1387.33670858018	132.65216674379	2679.69236247147	1330.0822203348	149.19656291085	2086.59639690412	755.166332200943	130.101082211157	1352.03948846198	958.018549063449	147.118459717673	1265.97097318656	947.945795886197	143.876358924871	1723.24537759554	658.557687977689	162.019919525175	811.673325320079	1106.96271133228	155.8184523703	1768.54274060457	589.98609918338	149.219014909909	683.949080568652	1208.61552564059	145	2261.91418236947	1314.79809639451	138	2221.56068150681	992.961131649479	143.995349747749	2045.92899419833	1105.2628960671	148.840033782615	1689.31735034402
407.132964297307	143	755.249478622229	1343.58202046692	181.605389310573	2031.0639669377	1619.75206677319	143.107230502302	2775.94653766185	1926.32262233229	160.497893647212	3022.74847619779	1386.95051751891	132.646423671227	2679.46343791587	1329.47381880236	149.192786389846	2086.11755066652	754.712168491608	130.082403674188	1351.42107284817	957.45488423579	147.113897378801	1265.69177211513	947.786133784747	143.872222622371	1723.97919607455	658.16968971361	162.055708507716	811.639085466696	1106.90342207236	155.818966320051	1769.47764632643	589.951990857312	149.228859588786	684.123995735573	1208.43110751714	145	2262.8113292696	1314.75412368239	138	2222.73138908977	993.038425113852	143.988250197392	2047.01259120493	1105.57739522105	148.828979115151	1690.79672633533
407.079501036055	143	755.505205551956	1342.78997182666	181.649345315907	2031.08910944375	1619.34985996569	143.134161937614	2776.72264587244	1925.66209349443	160.552842599077	3023.22069868799	1386.55234548515	132.650946385807	2679.59407565962	1328.85518272991	149.189458553319	2085.83314605274	754.236857636524	130.061156926116	1350.96169241746	956.857078343081	147.101082211157	1265.50100121572	947.607233996985	143.862061541382	1724.50011461963	657.735604531018	162.078368354236	811.500036821256	1106.77245479231	155.791581393089	1770.0658784887	589.921046889297	149.23753845393	684.244683551348	1208.21268870063	145	2263.56257946167	1314.75068919343	138	2223.93639580353	993.138115118892	143.976220778044	2048.10080703058	1105.88807564041	148.812654417874	1692.23595481979
407.054039350842	143	755.846211415492	1342.07274194269	181.690073504698	2031.3741766893	1619.01180120187	143.167697855495	2777.90792890903	1925.06505750419	160.61582444608	3023.99975475638	1386.20671135491	132.664974740097	2680.15683766142	1328.28588343752	149.18761264307	2085.82035635517	753.792870531031	130.04072345119	1350.74952703833	956.271197661863	147.082403674188	1265.44929731822	947.421069538267	143.845923344385	1724.7690055833	657.279841071333	162.082930693109	811.266926975771	1106.5806936293	155.742715744182	1770.25195876292	589.892342488059	149.242914065948	684.295900624353	1207.989851696	145	2264.13008978142	1314.79566091443	138	2225.10174765792	993.264251204569	143.95927654881	2049.12616447484	1106.19885381081	148.794469200433	1693.57066538151
407.062579524497	143	756.263684160014	1341.51832711807	181.72611924836	2031.99792218553	1618.77679363462	143.203395865745	2779.44498783085	1924.59294680875	160.677256299227	3025.07913738032	1385.95789971254	132.6848941957	2681.14726273897	1327.80634311295	149.190149854555	2086.09984092972	753.419190214631	130.023779221956	1350.81819921904	955.733950985293	147.061156926116	1265.55747635828	947.247584977295	143.824416776278	1724.7842950898	656.833398330517	162.06852367536	810.961086684141	1106.35549002936	155.680856175974	1770.04420402574	589.869628097288	149.243409064164	684.274273850811	1207.78991772094	145	2264.47595240281	1314.89246194066	138	2226.14079548474	993.417686372762	143.938843073884	2050.00903215898	1106.51131926232	148.775276713714	1694.73372108386
407.107684129167	143	756.741831939695	1341.18906720449	181.757656300872	2032.99263600461	1618.66498996178	143.237024504179	2781.2241300023	1924.28717665183	160.72816410288	3026.40518371078	1385.83042098968	132.703197543979	2682.50898236175	1327.43852334242	149.197768161837	2086.65021974916	753.14381881663	130.011749802608	1351.15761469795	955.275067509502	147.04072345119	1265.82474150555	947.116500566739	143.79983925023	1724.59017088252	656.428947118071	162.038598062144	810.61872487706	1106.14054142536	155.616353364885	1769.52214293962	589.860674305113	149.238479195173	684.19189488604	1207.64011046552	145	2264.58596348315	1315.04376082267	138	2226.97796162034	993.599205453779	143.917596325812	2050.68035963969	1106.82823395868	148.758325243571	1695.67258844686
407.187192489063	143	757.259702640287	1341.10937673745	181.785971669255	2034.33486396242	1618.67395502493	143.26332134843	2783.10228718282	1924.16004646685	160.760852806549	3027.88471123748	1385.82285616779	132.711318214943	2684.14918110814	1327.18165821591	149.210181051817	2087.41552859095	752.976523304832	130.004650252251	1351.72377377576	954.909388903568	147.023779221956	1266.23637987709	947.061360415083	143.775790663465	1724.27567674351	656.099551392389	162	810.289054086404	1105.98809857409	155.560811073508	1768.8305323045	589.877405879712	149.229292866068	684.078256098672	1207.56532913913	145	2264.48564484181	1315.25292192132	138	2227.57297622975	993.808190929255	143.898917788843	2051.09939811278	1107.15258872898	148.744929046606	1696.36839310372
407.295379057751	143	757.79656086302	1341.26183101909	181.814405881063	2035.96119076454	1618.77887394302	143.278704727177	2784.94672119327	1924.19369244514	160.774209448794	3029.42011896943	1385.90800185567	132.700489446924	2685.94394925092	1327.01227482091	149.224723286286	2088.30980347822	752.909574033353	130.001327222897	1352.44826565794	954.637470937347	147.011749802608	1266.76248359727	947.109891686586	143.755357188539	1723.95742744346	655.869020041422	161.96007471496	810.024351124184	1105.94509362758	155.521672869168	1768.14792628	589.930425811193	149.217104979004	683.971663212135	1207.58020672905	145	2264.22712184442	1315.51741174641	138	2227.91324078281	994.039526558838	143.8861026212	2051.25136689522	1107.48381617032	148.736676217835	1696.82620728082
407.423392634647	143	758.335564696677	1341.59816086805	181.844051947113	2037.778370606	1618.94309186577	143.280698854946	2786.65439301863	1924.35157593561	160.767560331173	3030.92495017824	1386.04933200224	132.667271734399	2687.77096017689	1326.90070932725	149.237024504179	2089.2418874926	752.926669627336	130	1353.26055055505	954.4501911761	147.004650252251	1267.37113366001	947.277854041193	143.742542020895	1723.75608769191	655.747491937486	161.926826072389	809.8694053441	1106.04258086226	155.505534672171	1767.65159775212	590.027058110613	149.20428981136	683.912218811593	1207.69227278017	145	2263.89581296856	1315.8324042861	138	2228.02994031252	994.286150969914	143.881540282327	2051.16225993265	1107.81948382843	148.73508436773	1697.08581852683
407.559229858836	143	758.862162126215	1342.04709129691	181.875138566887	2039.67270395817	1619.12037659336	143.268518208791	2788.15645545705	1924.57879376459	160.744185552804	3032.32628660843	1386.20916596883	132.612489068446	2689.50031377682	1326.81576256822	149.243321150786	2090.1129977122	753.006560624346	130.001327222897	1354.08848782666	954.333433386709	147.002654445794	1268.02133195629	947.564426515661	143.73973461998	1723.77374236373	655.730966133945	161.905319504283	809.851798095333	1106.28643575777	155.511678004518	1767.48455858783	590.165764407024	149.193236822583	683.93209516044	1207.89658697361	145	2263.58933054084	1316.18547433109	138	2227.9858616552	994.538286486214	143.8861026212	2050.89105253772	1108.15437799324	148.741214797998	1697.20841701377
407.690504744153	142.998672777103	759.364877295282	1342.5285975912	181.905846523204	2041.53011224214	1619.26348228037	143.243321150786	2789.41875808229	1924.81694246667	160.70893031672	3033.57271612815	1386.36136096986	132.542638100616	2691.01055973903	1326.7393646455	149.239544560209	2090.83154540615	753.131026297069	130.004650252251	1354.86862223759	954.274065440674	147.004650252251	1268.66855891176	947.952708192298	143.748426020443	1724.07218025294	655.800912452528	161.897852423808	809.976476244969	1106.65838089656	155.536510660891	1767.723903612	590.340196168963	149.185738742489	684.047539901161	1208.17389020531	145	2263.39861294079	1316.55506437991	138	2227.86288631583	994.782073389215	143.898917788843	2050.52088437228	1108.47791448377	148.754029965642	1697.26794437015
407.805703153406	142.995349747749	759.829950833016	1342.97456172765	181.934192821633	2043.24573672828	1619.33466111675	143.208050855597	2790.42572450117	1925.0153470442	160.66489156432	3034.6240793366	1386.4936434136	132.469111701992	2692.20676673517	1326.66292729094	149.22419218108	2091.32711973908	753.286499478321	130.011749802608	1355.55677402224	954.259892087284	147.011749802608	1269.26991923126	948.410407218486	143.768708268562	1724.65246602237	655.927158688174	161.903568041094	810.220173453907	1107.11568590708	155.572674414459	1768.36166589627	590.535330702797	149.183050304197	684.254810836722	1208.4954908974	145	2263.38649980486	1316.91670956315	138	2227.74054665878	995.006438615227	143.917596325812	2050.13988317264	1108.7801210451	148.771140411214	1697.33481185461
407.896538408023	142.988250197392	760.244340316497	1343.33246240802	181.957949325913	2044.74077875837	1619.30507291024	143.166889389524	2791.17272534741	1925.13088983326	160.614497223183	3035.451710939	1386.6046107978	132.404190603153	2693.01770223114	1326.58681666167	149.197628275886	2091.55074920827	753.463937955216	130.023779221956	1356.12126874285	954.280452069871	147.023779221956	1269.78131604769	948.894886180021	143.799048694761	1725.45636392477	656.072841311826	161.918923548709	810.537476771693	1107.60047631193	155.610904946485	1769.30799727937	590.730869387114	149.184289613716	684.528522979518	1208.82589548848	144.998672777103	2263.56902026825	1317.24428048896	137.998672777103	2227.67749538928	995.202162956499	143.938843073884	2049.82342824515	1109.05140933024	148.788089447622	1697.46494097068
407.959450272097	142.976220778044	760.595339736367	1343.57212097476	181.976220778044	2045.96964922448	1619.15633455149	143.124454348275	2791.66285418416	1925.1340707314	160.559229858837	3036.04078149086	1386.69301641541	132.356772045192	2693.40398842879	1326.50833769693	149.162239137273	2091.47974598304	753.651261723358	130.04072345119	1356.54069667033	954.316674478339	147.04072345119	1270.16028528913	949.358433098766	143.83643363983	1726.37026068821	656.197760324575	161.937515850987	810.86227049286	1108.0475012518	155.642826366158	1770.4009713443	590.901442425465	149.186804107525	684.824304739666	1209.11808384665	144.995349747749	2263.89509176402	1317.50305566684	137.995349747749	2227.68037693921	995.355829348152	143.95927654881	2049.60601854958	1109.2757247863	148.800637554322	1697.67760387304
407.994543981551	142.95927654881	760.870367973575	1343.68583114695	181.988250197392	2046.91199647985	1618.88461870108	143.084936148072	2791.89233215256	1925.01177924653	160.49807293272	3036.37770402346	1386.75162595002	132.331973447351	2693.34279329321	1326.41871569914	149.123127125378	2091.10656650382	753.831715470912	130.061156926116	1356.79027857673	954.342483903231	147.061156926116	1270.3581480014	949.746497209863	143.876872874622	1727.23048733939	656.259074722217	161.953299073663	811.112364374655	1108.3853675323	155.661377435029	1771.42246291865	591.016448706575	149.188136137596	685.080225644797	1209.32241019512	144.986922974495	2264.24913324686	1317.66010028084	137.988250197392	2227.6996253022	995.454511367788	143.976220778044	2049.47533368239	1109.43545686714	148.805199893195	1697.94996119501
408.005268895679	142.938843073884	761.053050255034	1343.67931688638	181.995349747749	2047.54664923623	1618.49454668134	143.052473253798	2791.83065578475	1924.76199748727	160.431540394586	3036.42849131641	1386.75537082309	132.326872762363	2692.81184022886	1326.29062705684	149.084936148072	2090.42669699055	753.97591329641	130.082403674188	1356.82781868241	954.315398986019	147.082403674188	1270.31582824763	950.003649917565	143.913736629031	1727.83795984806	656.212866690625	161.958493500288	811.19182336602	1108.54374020009	155.660856244368	1772.11855235114	591.044139632095	149.184813108242	685.220642469433	1209.38287693514	144.971570525793	2264.46354036031	1317.67702224559	137.976220778044	2227.63451361543	995.4779423088	143.988250197392	2049.37246550254	1109.50458542065	148.799577392369	1698.21514644476
407.994096993905	142.917596325812	761.119956696028	1343.55669812859	181.997345554206	2047.81912336421	1617.99761481043	143.028429474207	2791.40533697451	1924.39010050672	160.360396331964	3036.12041006978	1386.65997870318	132.335914467916	2691.75374682299	1326.08067417765	149.052473253798	2089.40994231924	754.041775113495	130.101082211157	1356.57459472429	954.178754475638	147.101082211157	1269.9520323738	950.074220441797	143.942876493951	1727.97768172093	656.015704754362	161.94674369768	810.997459265096	1108.4551303248	155.639777391323	1772.23034557628	590.950706486696	149.175054304917	685.16376056613	1209.24938595332	144.947526746202	2264.33307214225	1317.52067971389	137.95927654881	2227.33530949956	995.40772625266	143.995349747749	2049.19395831884	1109.45454098157	148.783841473035	1698.35934431473
407.961611381955	142.897590565946	761.035736011882	1343.30788637529	181.994022524852	2047.61685474089	1617.40198244485	143.013077025505	2790.4908901814	1923.89905206373	160.287214676209	3035.32511737444	1386.40433311799	132.349167720016	2690.07424822899	1325.73273900599	149.028429474207	2087.99754585811	753.977101179623	130.1138973788	1355.91824325386	953.867131155866	147.113897378801	1269.16735573866	949.908540231635	143.958493500288	1727.4451436199	655.625907928218	161.913119796848	810.426021867504	1108.06578699031	155.599061668277	1771.52488390041	590.706233682007	149.159183168863	684.829741616476	1208.88178777151	144.913736629031	2263.65430263499	1317.16681210019	137.938843073884	2226.64070418646	995.226348449283	143.998672777103	2048.82101706626	1109.25581769238	148.758876658855	1698.2444366463
407.903365800696	142.881452368949	760.754619546714	1342.89454933215	181.982272722244	2046.76041303503	1616.70295156767	143.004650252251	2788.91138628371	1923.27713993145	160.216039613968	3033.8573750971	1385.91745851941	132.358266135743	2687.63525212537	1325.18531875125	149.013077025505	2086.09406125347	753.724014152614	130.118459717673	1354.71817914766	953.312003001781	147.118459717673	1267.84778140133	949.465403473788	143.957166277391	1726.0710078552	655.007719924367	161.855285900085	809.385633494659	1107.33621860477	155.541590494459	1769.82297608671	590.287863567329	149.137676600757	684.14877769679	1208.2576768305	144.872222622371	2262.25244838053	1316.60408391282	137.917596325812	2225.40235944051	994.925248895163	143.998672777103	2048.13670423167	1108.88460552009	148.72611924836	1697.72473082931
407.809129148123	142.869790479719	760.226567869156	1342.25304887882	181.958493500288	2045.02774334381	1615.88051432448	143.001327222897	2786.47574028448	1922.49696875484	160.151556599585	3031.50762957433	1385.12819136165	132.357306442964	2684.27011702133	1324.3820546015	149.004650252251	2083.5781636777	753.228978180856	130.1138973788	1352.82679057162	952.456060582216	147.113897378801	1265.88026153219	948.721259779569	143.936899018804	1723.74828401717	654.138188381539	161.774209448794	807.80802424178	1106.25565039244	155.472175932398	1767.03043980447	589.684981361082	149.112832013765	683.074961080203	1207.37712195863	144.824683837222	2260.00676877659	1315.8388982662	137.898917788843	2223.51112348031	994.505121831767	143.995349747749	2047.04236122805	1108.32845298789	148.686198700921	1696.6700216977
407.668274744989	142.862323399243	759.40572130141	1341.30991906882	181.917770049098	2042.19171474373	1614.90818822985	143	2783.00546389641	1921.52226783116	160.098013173577	3028.07002078349	1383.97976048987	132.343996277105	2679.83383870809	1323.28331230028	149.001327222897	2080.33848260616	752.452332641067	130.101082211157	1350.1280440868	951.264186992907	147.101082211157	1263.18410187974	947.673897180315	143.897336574172	1720.45157007088	653.013249004604	161.673127237637	805.663316079243	1104.84025065746	155.395663498667	1763.15001610476	588.903132925157	149.087053926439	681.593539749749	1206.26437404733	144.775269472804	2256.87647568899	1314.89925219417	137.8861026212	2220.92870138401	993.9814152867	143.988250197392	2045.4834047254	1107.59202985821	148.640847784729	1694.99619482987
407.470506583152	142.856867114757	758.261346211214	1340.003071044	181.855285900085	2038.07498930124	1613.75973192543	143	2778.38045812194	1920.32051370683	160.057123506049	3023.3896057928	1382.44473114822	132.318614905221	2674.23885832038	1321.87737730896	148.998672777103	2076.30022245325	751.380250630076	130.082403674188	1346.56465392452	949.736611642088	147.082403674188	1259.7305674142	946.347076693772	143.840016627161	1716.23698348472	651.65184492445	161.559229858837	802.967099545445	1103.13929012977	155.317643015785	1758.27900273441	587.965031528445	149.062484149013	679.72573153557	1204.96348404023	144.726657594475	2252.89604783372	1313.82800752416	137.881540282327	2217.68758761247	993.377439246146	143.976220778044	2043.44366634857	1106.69638922971	148.590740718903	1692.67515459905
407.209702857017	142.851789147445	756.789492376632	1338.30374156517	181.768231973646	2032.61024420573	1612.42093363614	143	2772.58022745521	1918.87077617923	160.029756697104	3017.41151163782	1380.53158572641	132.286693485548	2667.49838056125	1320.18257304718	148.995349747749	2071.46070184564	750.029499628737	130.061156926116	1342.16610024632	947.91412763414	147.061156926116	1255.5672291153	944.791738523597	143.76860793733	1711.2454668306	650.100288082452	161.440770141163	799.787742107583	1101.22927071107	155.241936614291	1752.60427343049	586.909278880031	149.04072345119	677.532945622275	1203.53431239284	144.681291619179	2248.17541697536	1312.68148449759	137.8861026212	2213.89195210224	992.725183244717	143.957949325913	2040.94813282922	1105.67716626477	148.536655887867	1689.74485130293
406.888280550881	142.844689597087	755.024632245043	1336.23485124207	181.655399959881	2025.88892854886	1610.90011447722	143	2765.72515795348	1917.17675382872	160.013077025505	3010.22517805838	1378.30172199688	132.252638810742	2659.77561734128	1318.26040183068	148.988250197392	2065.92358254018	748.455746111859	130.04072345119	1337.07043732642	945.882576102879	147.04072345119	1250.83385961344	943.084934899503	143.690068767097	1705.69223459422	648.429534939622	161.326872762363	796.24645668099	1099.2110530348	155.173317297408	1746.38346831622	585.788364257188	149.023779221956	675.110953645154	1202.04736919065	144.639603668036	2242.89130518541	1311.5229429247	137.898917788843	2209.70375169459	992.059118993262	143.932865598736	2038.06495219131	1104.58420910163	148.479394395752	1686.30904957983
406.518252415872	142.834415115697	753.038387272011	1333.88178812212	181.519050582022	2018.1685663116	1609.23824575818	143	2758.0718312566	1915.27849101457	160.004650252251	3002.06807107348	1375.86111433786	132.223660354986	2651.38806317697	1316.20447696834	148.976220778044	2059.90656543232	746.745637388862	130.025106444853	1331.51949788369	943.762601873211	147.023779221956	1245.75616729641	941.326632170072	143.61311824891	1699.85357890971	646.733454501343	161.225790551206	792.510551377541	1097.20197713321	155.114957402811	1739.92658036261	584.664899401582	149.011749802608	672.58714407976	1200.57850310403	144.601280532923	2237.26103973952	1310.4177310756	137.917596325812	2205.31889586795	991.416061726355	143.899869048056	2034.88727891742	1103.47509326342	148.418725226942	1682.52138723348
406.121202076845	142.821599948054	750.940482309381	1331.38721583454	181.364517665409	2009.87502490933	1607.51093796741	143.001327222897	2750.01779758207	1913.25553044989	160.001327222897	2993.33435248147	1373.35879303318	132.204012697929	2642.8031334441	1314.13992004705	148.957949325913	2053.73976749829	745.011695588671	130.016400054859	1325.84596078509	941.698308488466	147.011749802608	1240.62921839109	939.628786840295	143.547995905864	1694.0437203208	645.116169994418	161.144714099915	788.779740273219	1095.32345805661	155.070480148294	1733.56830352742	583.604805377941	149.004650252251	670.106138419354	1199.20131558659	144.565207333984	2231.52766855183	1309.42619073734	137.938843073884	2200.94486586729	990.828083831866	143.858738512028	2031.5319024681	1102.40970837616	148.355833993091	1678.56758224863
405.726321488758	142.808633553603	748.863577499122	1328.93757137102	181.201213163101	2001.53894622052	1605.82515653438	143.004650252251	2742.04339251054	1911.22483860152	160	2984.51641131245	1370.97346577346	132.196127329702	2634.57361406676	1312.2114677293	148.934192821633	2047.81487246642	743.380491749395	130.016400054859	1320.42591027082	939.841663731281	147.004650252251	1235.77890856708	938.105218816369	143.504321555097	1688.59352419322	643.684992781186	161.086880203152	785.265518160321	1093.69131238268	155.042833722609	1727.64521749816	582.671097334416	149.001327222897	667.81794386075	1197.98418547343	144.53167134653	2225.95365433253	1308.60125403621	137.95927654881	2196.8003184528	990.323650907928	143.809850145445	2028.14177955627	1101.44405402937	148.293104237978	1674.65768529489
405.367254279575	142.79904869476	746.94762230162	1326.73629713927	181.041506499712	1993.72834598636	1604.30884145682	143.011749802608	2734.65501021017	1909.3312754758	160	2976.14881415814	1368.88742787489	132.199095384734	2627.2708152486	1310.5616780572	148.905846523204	2042.5341545245	741.97364247363	130.025106444853	1315.63411157722	938.330904213221	147.001327222897	1231.51886610331	936.857308145003	143.488938176349	1683.8136521146	642.535347492752	161.05325630232	782.169147391495	1092.40174007008	155.032800109718	1722.46076272108	581.918235719974	149	665.858467444048	1196.98284914695	144.501657819935	2220.80119183717	1307.97978571644	137.974893555147	2193.09821021245	989.922848699597	143.754553460168	2024.87879896323	1100.62435760841	148.233505033862	1671.0027070102
405.077599953767	142.795181131893	745.319648077376	1324.98026902383	180.898744065557	1986.96432086472	1603.10077244819	143.023779221956	2728.31450616017	1907.73679625738	160	2968.73427013492	1367.26577762521	132.210181051817	2621.38721898339	1309.31557631605	148.875138566887	2038.24041389541	740.894641493859	130.04072345119	1311.7846879345	937.273062068144	147	1228.10282635243	935.962513810686	143.5029943322	1679.9656983465	641.740422252518	161.041506499712	779.65707138797	1091.5236057486	155.041506499712	1718.26100849742	581.386369970308	149	664.334618545083	1196.2378447383	144.477364530763	2216.31308242072	1307.58362977429	137.983599945141	2190.02911456362	989.636947935441	143.695841094557	2021.91152745074	1099.98216971865	148.181984939161	1667.79547483111
404.885542068191	142.799048694761	744.073134437928	1323.81956716359	180.784846686756	1981.63389787037	1602.31707547444	143.04072345119	2723.35999332859	1906.57983086634	160	2962.65710939385	1366.23434562373	132.226050509183	2617.27316394212	1308.56317302038	148.84537917001	2035.16239104319	740.21697541002	130.061156926116	1309.092097838	936.733594041761	147	1225.69153903259	935.462818561563	143.543345653613	1677.22609312074	641.341018659081	161.048028149234	777.838765389484	1091.09000203219	155.065829896043	1715.20451208358	581.093418637825	149	663.308494696138	1195.77722324728	144.460158930903	2212.68752900807	1307.42073511524	137.983599945141	2187.74239126016	989.472377748062	143.636547699626	2019.39427267478	1099.53382672784	148.143039143606	1665.18590840231
404.809543584211	142.808633553603	743.257210669834	1323.33505558319	180.708067192082	1977.94216691366	1602.03297139468	143.061156926116	2719.96248668575	1905.95520476563	160	2958.13377398023	1365.85185260264	132.243001979326	2615.0656077418	1308.3371447017	148.820383356211	2033.36535701496	739.968208610181	130.082403674188	1307.634287235	936.720784481181	147	1224.32373972152	935.3581939252	143.600041223404	1675.66698151432	641.337760450274	161.067134401264	776.752224213019	1091.09427421728	155.101880377306	1713.34502086207	581.034351076697	149	662.786597993786	1195.6059934504	144.451065252777	2210.04584259809	1307.47596561216	137.97356633225	2186.31840670603	989.424392241305	143.578706561954	2017.44059584184	1099.27476378991	148.118280432165	1663.25958886775
404.855241196712	142.821599948054	742.867132761135	1323.52518273826	180.671472802482	1975.8811056278	1602.2652390371	143.082403674188	2718.0974609823	1905.89240540106	160	2955.17837322087	1366.10265450171	132.261048428542	2614.66173733981	1308.60727868033	148.803698947011	2032.73406552623	740.12811801061	130.101082211157	1307.33765982671	937.184831732047	147	1223.90609776314	935.602149626299	143.66163929289	1675.2301048093	641.687085774372	161.094153476797	776.349855008044	1091.4852711233	155.144887823202	1712.6120226989	581.175835292543	149	662.714658979573	1195.70786578293	144.448388448446	2208.40330970937	1307.71574615161	137.953299073663	2185.74222747392	989.480113828821	143.523173815352	2016.0933752075	1099.18188993652	148.107857852454	1662.01863707741
405.013788581856	142.834415115697	742.849721478513	1324.29960100117	180.672538167517	1975.23844633608	1602.96190307819	143.101082211157	2717.55497337368	1906.34133430795	160	2953.60488690585	1366.89002852757	132.279723837024	2615.72725141238	1309.27770139681	148.797835577687	2032.98685975608	740.626154322919	130.1138973788	1307.98369563919	938.020223537745	147	1224.222772132	936.105326647939	143.714807460636	1675.71832601465	642.301360502042	161.124861433113	776.496928389362	1092.1708893451	155.188136137596	1712.79922684277	581.457807056738	148.998672777103	662.974347064469	1196.03529424324	144.449987469888	2207.63805698969	1308.07908250746	137.922443019025	2185.87856891334	989.612238769607	143.469635196518	2015.29927233593	1099.20788686102	148.107510119041	1661.36440332005
405.261145852484	142.844689597087	743.108024364968	1325.48963437335	180.702616735854	1975.62527492169	1604.00337329443	143.1138973788	2717.96740831153	1907.1741269804	159.998672777103	2953.05349429688	1368.04583787129	132.301771879731	2617.72132734513	1310.1975018218	148.803698947011	2033.71202357475	741.346628074816	130.11978694057	1309.22384845194	939.07335354875	147	1224.95382612771	936.744635985541	143.750430226838	1676.80587795667	643.057104499502	161.15462082999	776.977384374401	1093.02450663018	155.228056615462	1713.57861495559	581.798755412499	148.995349747749	663.396738337058	1196.50986932615	144.452782405057	2207.48935594741	1308.48367739909	137.88074007835	2186.46750871872	989.780713991654	143.416990919207	2014.90138426613	1099.28561905465	148.112832013765	1661.10048525793
405.560028024986	142.851789147445	743.514338278572	1326.86749111193	180.749379713391	1976.5280688755	1605.21621790977	143.118459717673	2718.85657122485	1908.19972207545	159.995349747749	2953.03559879852	1369.34647253746	132.329265350296	2619.96527274997	1311.17850827233	148.820383356211	2034.42499452486	742.139807293619	130.118547631051	1310.61795075743	940.156466710102	146.998672777103	1225.71025926181	937.375171089634	143.763786869082	1678.0670894822	643.806640726296	161.179616643789	777.51629879931	1093.89482543467	155.26078657068	1714.52815051257	582.105162234482	148.988250197392	663.78035678591	1197.02908515536	144.452528205767	2207.59077889486	1308.83635611333	137.82843764055	2187.16220743723	989.935986525635	143.363994170883	2014.66448754071	1099.33574306183	148.118547631051	1660.95879393002
405.864513746778	142.856867114757	743.921464912053	1328.1742855716	180.79798867075	1977.36469093438	1606.39433231245	143.1138973788	2719.68131496746	1909.18821490533	159.988250197392	2952.9868010958	1370.54310697464	132.362923243626	2621.72829746616	1312.01918704776	148.844051947113	2034.6363709669	742.840144040781	130.112832013765	1311.68698900125	941.069559375402	146.994022524852	1226.08414232644	937.850660500073	143.755530911825	1679.02479907561	644.396813333404	161.196301052989	777.809771674596	1094.62883079977	155.286157573169	1715.1822617402	582.285142656511	148.976220778044	663.918280748079	1197.47980304894	144.446804929909	2207.52186739591	1309.04825389883	137.766494966138	2187.58201601881	990.027451508227	143.309936795125	2014.31353849619	1099.27816217077	148.11978694057	1660.63913824959
406.12669189542	142.862323399243	744.183738867179	1329.15580306739	180.832833901026	1977.56472125664	1607.33134172568	143.101082211157	2719.9173068818	1909.90793054348	159.976220778044	2952.35315562348	1371.39538494803	132.403298961404	2622.3262681059	1312.53412737223	148.86916109174	2033.91715399309	743.28532492117	130.106182896144	1311.9744564087	941.623992189514	146.982272722244	1225.69769941891	938.040682109709	143.733218798718	1679.21536409362	644.69003012539	161.202164422313	777.56681946256	1095.08843328345	155.30456599028	1715.09596738568	582.259843008252	148.95927654881	663.627084508299	1197.75438412237	144.433587415029	2206.86754438472	1309.04871531766	137.696473182311	2187.3644263354	990.010231035025	143.255158866772	2013.57317005868	1099.04089601855	148.113897378801	1659.84838333703
406.305248515199	142.869790479719	744.174663655139	1329.60328721093	180.841517573344	1976.64227552113	1607.86143659098	143.082403674188	2719.12867581344	1910.17488161754	159.95927654881	2950.67176039845	1371.70715677149	132.448149308261	2621.22119629151	1312.58487268494	148.889446468345	2031.9650420189	743.341459120383	130.103207600203	1311.1132471225	941.669703809016	146.958493500288	1224.2599123255	937.849275345452	143.704896896652	1678.25716866273	644.582761343056	161.194973830092	776.552082832007	1095.17183873334	155.318362813331	1713.91401800979	581.97779106823	148.937515850987	662.77655022917	1197.77051060216	144.411532200985	2205.2918403394	1308.80139998108	137.620386784953	2186.2357995759	989.853812432247	143.201213163101	2012.22066387334	1098.57437196523	148.101082211157	1658.35032902687
406.369736732664	142.880125146052	743.799518120439	1329.37584648901	180.816433846167	1974.24475240719	1607.87335640616	143.061156926116	2717.00128839484	1909.86694518015	159.938843073884	2947.60964181211	1371.34954348477	132.492443190985	2618.08719876421	1312.09179340012	148.898663797069	2028.63309105731	742.918128606509	130.106530629557	1308.87061936921	941.112014916565	146.917770049098	1221.59982655479	937.223665903602	143.679173840812	1675.90322100113	644.020449323364	161.173639168642	774.621020058119	1094.82414040429	155.329578959534	1711.41754052054	581.421090208508	148.912946073561	661.306728106786	1197.48275866076	144.38191232738	2202.58602711349	1308.30964689015	137.540551321868	2184.05296316084	989.546684049393	143.149538075452	2010.11585625331	1097.85648356261	148.082403674188	1655.99620562546
406.305134805284	142.892940313696	743.005714492472	1328.42148317513	180.756482171038	1970.19849408548	1607.33193233992	143.04072345119	2713.38724379537	1908.95124117041	159.917596325812	2943.01307978798	1370.28048004766	132.529994352394	2612.82801617631	1311.04614749912	148.893446652767	2023.92752759305	741.982885201856	130.117932698753	1305.16863652731	939.930391692943	146.856613122982	1217.68269053759	936.159715894309	143.661648582258	1672.07221799015	643.002386967263	161.138220775132	771.739655034486	1094.04116826326	155.340232104382	1707.55393407802	580.60372502793	148.887167986235	659.234772085229	1196.88938751963	144.345201528092	2198.70002142916	1307.61443161391	137.459448678132	2180.82558378895	989.095293118513	143.103207600203	2007.21804673996	1096.89415547976	148.059829703219	1652.74599883834
406.113153426588	142.905846523204	741.787857810043	1326.77970551248	180.667149762489	1964.51457437401	1606.27696284512	143.023779221956	2708.3062576053	1907.48044347974	159.898917788843	2936.91077339214	1368.54222572411	132.553781440436	2605.56960932932	1309.50384175754	148.873013177841	2017.98811360874	740.560973663529	130.136611235721	1300.0842550925	938.174068957549	146.774209448794	1212.60522528134	934.696227803769	143.654272543646	1666.8446503512	641.577343845804	161.088005185652	767.982169953031	1092.86047990295	155.349851780343	1702.42042170266	579.565803331597	148.862323399243	656.642601712308	1196.02667415324	144.304047233355	2193.72934874612	1306.78078620522	137.379613215047	2176.69043985872	988.517680001056	143.064502673146	2003.57165127624	1095.71473354763	148.036073198939	1648.65334242262
405.808926907725	142.915063851928	740.182897230351	1324.56104942599	180.556575413043	1957.37206051799	1604.8016349318	143.011749802608	2701.92745553401	1905.5662736183	159.884775398303	2929.49135280055	1366.25179071082	132.55906378044	2596.61719294764	1307.57160398833	148.840039344837	2011.05072263071	738.73033829934	130.160598305138	1293.81972797962	935.955740469008	146.673127237637	1206.57025342624	932.90441436334	143.654798471908	1660.44058141629	639.832023484252	161.023673328503	763.515838701287	1091.3511429731	155.357477258962	1696.24283745791	578.363046364395	148.840816831137	653.659320043045	1194.96376405385	144.259721205645	2187.88748623785	1305.88779533555	137.30352681769	2171.87631394934	987.840717196964	143.035529024564	1999.28675007167	1094.36305938394	148.010702196451	1643.84656343841
405.417760568246	142.91855309762	738.261031404953	1321.92627777473	180.434792666016	1949.08023907661	1603.03160069074	143.004650252251	2694.5314520526	1903.35416537204	159.876890030076	2921.06419584099	1363.57576902782	132.544134309199	2586.3853066862	1305.38722543028	148.798786836899	2003.39515848785	736.60414675065	130.185594118937	1286.6601377254	933.430673660405	146.559229858837	1199.84518469081	930.873223451554	143.661095118515	1653.17408114772	637.873849932244	160.946199523305	758.567105295467	1089.59303260898	155.360803416801	1689.32434625629	577.054116870444	148.824945695083	650.438433296939	1193.78811121074	144.214028330745	2181.45309871951	1305.01488547598	137.233505033862	2166.64669792355	987.094717365827	143.016400054859	1994.50001065419	1092.89102000545	147.981993105504	1638.48936020912
404.970429444037	142.915063851928	736.110750124683	1319.05764039198	180.309145484607	1940.02016497078	1601.10460868878	143.001327222897	2686.45032290286	1900.99767513024	159.874352818591	2911.99143865422	1360.70090563888	132.510794624765	2575.3377358156	1303.0923035557	148.755263712939	1995.30617940532	734.313137946203	130.208050855597	1278.92749160247	930.769195577579	146.440770141163	1192.72424932541	928.696173311356	143.670421040466	1645.40172725566	635.812543012726	160.85698357407	753.383224372834	1087.6671060156	155.356899358127	1681.9969106826	575.692057915287	148.816514114655	647.130288259627	1192.59072633282	144.16821661242	2174.72804758202	1304.22604568867	137.17156235945	2161.2608728911	986.305148319203	143.005977475148	1989.3565079515	1091.34727346234	147.946199523305	1632.75738033247
404.497968116265	142.904519300307	733.824186750309	1316.13108004372	180.184284051494	1930.58932449241	1599.14404830443	143	2678.02040370971	1898.63090443963	159.87381134399	2902.6394317755	1357.80550144191	132.465500622332	2563.91533797023	1300.81401031395	148.713842426831	1987.03253851253	731.98390332415	130.225943644269	1270.92853472148	928.133626958119	146.326872762363	1185.48205250388	926.460300495543	143.680309963772	1637.46500869185	633.746122990366	160.758063385709	748.194142967832	1085.64437545101	155.343183003959	1674.56890771607	574.318070592904	148.816514114655	643.862117295531	1191.44855135079	144.124454348275	2167.98325397189	1303.55888098266	137.11925992165	2155.92673014257	985.489675810272	143.001327222897	1983.97780784675	1089.76623990346	147.899991019966	1626.80311092375
404.026723380336	142.889617284342	731.485477934679	1313.29214735259	180.061156926116	1921.15742837104	1597.24190842913	143	2669.54171031959	1896.35078539143	159.872222622371	2893.33652398744	1355.03424879239	132.41435919109	2552.50809847726	1298.64928827944	148.676729280307	1978.78546774088	729.720615230432	130.237024504179	1262.93145933544	925.653889465822	146.225790551206	1178.35414571653	924.24009373413	143.690783757469	1629.65206609007	631.751859873223	160.653383335633	743.185731984761	1083.58572376654	155.319428178367	1667.29370621179	572.9623741035	148.823618472186	640.727110406308	1190.41435091395	144.084936148072	2161.42592096765	1303.02176548985	137.077556980975	2150.77806927935	984.652916330085	143	1978.44774297984	1088.16659319997	147.840016627161	1620.73954294981
403.573252177352	142.873025595694	729.157584818705	1310.64086531685	179.938843073884	1912.02282952369	1595.44563526298	143	2661.23567785908	1894.20469700678	159.865936345159	2884.32886284935	1352.48558750188	132.363356520909	2541.41792186417	1296.65898588586	148.644166006909	1970.71975260678	727.596548681051	130.240773569906	1255.13580999325	923.416260853199	146.143386877018	1171.51527918109	922.095779515352	143.700765401326	1622.17434023663	629.884495443664	160.546502604571	738.484869225573	1081.54416671523	155.287100570386	1660.35510846951	571.645340550893	148.83483935599	637.78282624984	1189.51221544167	144.052473253798	2155.1865025245	1302.59944801657	137.046700926337	2145.87496792193	983.791390133603	143	1972.81471639237	1086.5511580383	147.767280714434	1614.63925810228
403.143386877018	142.859088283268	726.877707773792	1308.22803591818	179.815715948506	1903.39963506334	1593.75496824432	143.001327222897	2653.23474083079	1892.19180227493	159.853093652666	2875.77227604226	1350.2031572997	132.315908708051	2530.85424386379	1294.86009550146	148.61276847767	1962.94031101781	725.645202012781	130.237024504179	1247.67097616491	921.457011661248	146.082229950902	1165.07722528811	920.071022703796	143.710783955113	1615.14859431061	628.176340575417	160.44209736406	734.155175874231	1079.56523403985	155.248774306787	1653.85201000187	570.382431927993	148.844596121488	635.051419128932	1188.73497932067	144.028429474207	2149.31785877886	1302.25302949615	137.02643366775	2141.21939401144	982.889958463272	143	1967.09841710201	1084.90901296392	147.685418514846	1608.54167580294
402.733441101859	142.85002942226	724.657703296765	1306.06807535314	179.689527292496	1895.41642746933	1592.13879104634	143.004650252251	2645.58157601841	1890.28404764733	159.8330878928	2867.73322138613	1348.18629335714	132.272644570607	2520.92813242899	1293.2401253301	148.577908395805	1955.50193881551	723.86824105339	130.225943644269	1240.59597656016	919.770629660834	146.041506499712	1159.08861929177	918.196865674851	143.71947013074	1608.62160568449	626.64318905087	160.344250268879	730.2122229457	1077.69166732959	155.208046117996	1647.82552300693	569.186400122348	148.84698870942	632.532276646196	1188.04817355841	144.013077025505	2143.80808244103	1301.93235150619	137.016400054859	2136.77179822538	981.928719371522	143	1961.30320954304	1083.22241291683	147.600041223405	1602.46779451642
402.3316967379	142.849510665335	722.488892777353	1304.1437093091	179.559229858837	1888.12575822013	1590.54071246595	143.011749802608	2638.24842922257	1888.43098108573	159.807218417328	2860.20457651063	1346.40470156312	132.23315730045	2511.68148999282	1291.76753296019	148.535190816846	1948.42869119671	722.245080754484	130.208050855597	1233.91827193475	918.321868086421	146.017727277756	1153.55202589898	916.488418271466	143.726927714332	1602.57431578523	625.286332473163	160.257284255818	726.632768437125	1075.95795691352	155.167697855495	1642.25939612207	568.06772154843	148.836693597807	630.208701023135	1187.40358684014	144.004650252251	2138.60011714183	1301.58494339873	137.016400054859	2132.47823159702	980.888098990332	143	1955.43397369453	1081.475706572	147.51823920876	1596.43244472686
401.926196822353	142.858971873579	720.345981714166	1302.43051163216	179.425697309202	1881.51661823034	1588.90653749232	143.023779221956	2631.14861731578	1886.59041087066	159.778086301029	2853.11517681415	1344.80267323955	132.196016698648	2503.08314267155	1290.39205821844	148.481912018047	1941.70929891489	720.738102715766	130.18426689604	1227.60212758617	917.054620749052	146.005977475148	1148.42779427858	914.943999652768	143.73198505142	1596.95274310915	624.095282335778	160.183312162058	723.373449400026	1074.38212776599	155.129511685363	1637.10425450974	567.033573398024	148.811856251725	628.055626337076	1186.74224131552	144.002654445794	2133.61679890086	1301.16371326408	137.025106444853	2128.29432606132	979.753475268494	143	1949.51100223809	1079.65915010624	147.447198049048	1590.46022128843
401.504739809219	142.878484313917	718.19803910153	1300.90198858661	179.290016514902	1875.52811929303	1587.19237941367	143.04072345119	2624.15976394719	1884.73427270095	159.748164162582	2846.35018031109	1343.31813126866	132.160598305138	2495.03088835714	1289.06211805584	148.418056284243	1935.29350229046	719.306793288493	130.155948052887	1221.57597545358	915.906336813908	146	1143.64120386165	913.546812958451	143.735880485421	1591.67648210317	623.049536143422	160.1239101739	720.379188819058	1072.96265988861	155.095480699693	1632.28360387039	566.085648675884	148.774992497316	626.044349978792	1186.01037288923	144.004650252251	2128.78632895939	1300.63546927786	137.04072345119	2124.20656155358	978.520991090934	143	1943.58411248245	1077.7775859454	147.390925002772	1584.59670823117
401.060367021962	142.906536096126	716.016198018437	1299.53166799222	179.155310402913	1870.0657586898	1585.37158598906	143.061156926116	2617.1559643261	1882.85004386812	159.719190514	2839.7779513092	1341.88597529104	132.12618865601	2487.38726785083	1287.72459927841	148.346528750989	1929.10969225094	717.911476264939	130.124861433113	1215.75556356609	914.815321419464	145.995349747749	1139.1013688572	912.265508292033	143.739196273865	1586.65680647398	622.119400110848	160.078884203872	717.590368329698	1071.67466275667	155.065807178367	1627.70320938045	565.216500653314	148.730250743686	624.141405151939	1185.16699063274	144.011749802608	2124.05159841523	1299.98481385228	137.061156926116	2120.22977560135	977.201215389301	143	1937.72727471953	1075.84901833805	147.351437732615	1578.90095129874
400.593007558154	142.940164734559	713.78352621932	1298.3018101185	179.023779221956	1865.01291199604	1583.44309605473	143.082403674188	2610.03023606342	1880.94652426057	159.691278755685	2833.27273539969	1340.45160257959	132.094153476796	2479.99586681055	1286.33829079614	148.272553528743	1923.07728836736	716.520473584383	130.094153476796	1210.05768287701	913.72958737128	145.988250197392	1134.71388290292	911.062858489021	143.744929046606	1581.81467216394	621.270921762471	160.046700926337	714.950245475199	1070.47854490301	155.042050674087	1623.27430282735	564.413177857555	148.686216680996	622.314823153981	1184.19191241744	144.023779221956	2119.38549545475	1299.21550761628	137.082403674188	2116.40163499959	975.820048257898	143	1932.03621982113	1073.90608059198	147.327306039646	1573.44144773062
400.109177464671	142.975435029748	711.50439489836	1297.2002895245	178.897162850885	1860.26053363849	1581.42968774851	143.101082211157	2602.73121992313	1879.04950636977	159.663657817023	2826.75093770353	1338.97502204706	132.065807178367	2472.72096429903	1284.87732491645	148.202418414088	1917.12562972944	715.110930502745	130.065807178367	1204.41864088772	912.610504381648	145.974893555147	1130.3987958316	909.901561667876	143.75580518754	1577.09461392645	620.470445513582	160.025106444853	712.410942278644	1069.32591459873	155.023779221956	1618.9294493341	563.658589261858	148.648833414614	620.539994824546	1183.09370564456	144.04072345119	2114.80069376434	1298.35506509346	137.101082211157	2112.78275862669	974.419141063757	143	1926.62323932328	1071.99593893274	147.314153770093	1568.29384650489
399.623391001986	143.008164915393	709.202568429535	1296.22397255113	178.775790663465	1855.71349077729	1579.37732345102	143.1138973788	2595.26221771609	1877.20090852706	159.633201952597	2820.17396163833	1337.43902126331	132.042050674087	2465.47613767566	1283.3378284211	148.140854403134	1911.21230576897	713.675793024287	130.042050674087	1198.81156908049	911.440772726503	145.954626296559	1126.10684207322	908.756349869971	143.774480596023	1572.48648070162	619.693069603267	160.011749802608	709.941819816937	1068.18028329813	155.011749802608	1614.65233170781	562.940454635958	148.623988827622	618.80860811745	1181.91288929774	144.061156926116	2110.35068998366	1297.45261547176	137.1138973788	2109.44482360796	973.054702008095	143	1921.60613054699	1070.17881442239	147.305893213177	1563.53487305034
399.15579226005	143.034728820588	706.929790037645	1295.38502889788	178.659360810781	1851.33369547862	1577.35929038044	143.118459717673	2587.72382848893	1875.46481049246	159.596607562997	2813.5974144962	1335.8551451455	132.023779221956	2458.2606681186	1281.74320707735	148.09091362322	1905.34631369837	712.223704986498	130.023779221956	1193.26204674537	910.227565334595	145.925766048379	1121.83764814195	907.620354178065	143.801044501217	1568.03204185603	618.927748199483	160.004650252251	707.536062254397	1067.02477997306	155.004650252251	1610.48533329993	562.254076787471	148.614087438572	617.131075395611	1180.71206026727	144.082403674188	2106.12656179041	1296.56701378878	137.11978694057	2106.45981736094	971.785271467509	143	1917.09768660454	1068.5140509611	147.296344091555	1559.23779334433
398.729400036901	143.051413229787	704.757052041263	1294.70877037942	178.547829827468	1847.14603935897	1575.46337958893	143.1138973788	2580.29647557186	1873.91688759097	159.551349297784	2807.1578561814	1334.26462112268	132.013077025505	2451.16499878795	1280.1480301025	148.055127699592	1899.59892927998	710.783398943594	130.013077025505	1187.84969070192	909.004789285981	145.889166851605	1117.6424591287	906.513628688186	143.833110610476	1563.83725183132	618.184101480029	160.001327222897	705.221448432345	1065.87682943052	155.001327222897	1606.54910671369	561.610993522249	148.617680587782	615.546203057202	1179.57732578751	144.101082211157	2102.25117116378	1295.76790648561	137.118547631051	2103.89615385257	970.672101007391	143	1913.19680476422	1067.06387141313	147.280786768324	1555.47248166726
398.365224414587	143.054381284819	702.771389464921	1294.22642085959	178.44209736406	1843.25484892319	1573.77309869398	143.101082211157	2573.23494793494	1872.62681882733	159.497805871777	2801.07525545012	1332.73252038242	132.009300504501	2444.38532245098	1278.62809432412	148.033079726457	1894.11342832426	709.398622538753	130.009300504501	1182.71460751549	907.830017706362	145.846444535045	1113.63267264703	905.481896855597	143.865123072014	1560.06179664606	617.494659968617	160	703.060637861409	1064.7877021554	155	1603.02443135975	561.039311855765	148.63223006316	614.119499386321	1178.60448376511	144.113897378801	2098.87180513729	1295.12835728164	137.112832013765	2101.82174753717	969.769527174815	143	1909.99153976381	1065.88654039789	147.257030264044	1552.30942972337
398.080957041652	143.042224397373	701.063878239939	1293.97727573589	178.345577491776	1839.83425740106	1572.36477076056	143.082403674188	2566.84080511083	1871.65559304166	159.439018677974	2795.62676726953	1331.34525405758	132.014404248402	2438.19290885755	1277.27950443003	148.02615405101	1889.08469832132	708.130497873882	130.013077025505	1178.04002978737	906.783121323398	145.801166473127	1109.96431577922	904.592051123269	143.891284629972	1556.8985242043	616.91128262346	160	701.149214109504	1063.83452404585	155	1600.12725335167	560.579230552099	148.653476811233	612.933279123179	1177.8902140156	144.118459717673	2096.13752263353	1294.71933176813	137.107510119041	2100.29939272128	969.125023317467	143	1907.55160361163	1065.03512084535	147.225969836714	1549.81825045198
397.887113772298	143.012550876047	699.720269641999	1294.00078579609	178.263261730966	1837.10681394519	1571.29379708706	143.061156926116	2561.42379945533	1871.04328847253	159.381721448639	2791.11194197411	1330.20137234685	132.028429474207	2432.92511457697	1276.20454437059	148.034406949354	1884.75983860249	707.050013376931	130.023779221956	1174.04946053244	905.956768868909	145.758413156949	1106.83358920102	903.924376025331	143.906803295012	1554.55787801811	616.500721936803	160.001327222897	699.608572685266	1063.11145440857	155.001327222897	1598.08337075972	560.279562631301	148.678039347749	612.081981702575	1177.51776072344	144.113897378801	2094.18354996738	1294.60191808702	137.106530629557	2099.39011705175	968.773936845406	143	1905.93489514643	1064.55212536239	147.192781582672	1548.06869114398
397.789357649408	142.965593050646	698.809213319136	1294.33331753121	178.201039439814	1835.30505532162	1570.59377688963	143.04072345119	2557.25405687372	1870.80753612161	159.332738565423	2787.79945848511	1329.40194001469	132.052473253798	2428.94160086937	1275.50329893529	148.058450728946	1881.40738995235	706.234209486223	130.04072345119	1170.97835624219	905.449919584067	145.723863483927	1104.45362134677	903.561252848171	143.910413599677	1553.23838316228	616.334830254053	160.005977475148	698.572533018147	1062.71228242884	155.005977475148	1597.09264812222	560.189931069195	148.704205595416	611.655586832025	1177.54537536064	144.101082211157	2093.11669173425	1294.82141445277	137.113630179914	2099.15154362506	968.738594183178	143	1905.1870129603	1064.46599258536	147.164183192353	1547.12370403854
