Light	Light	Light	Light	Light	Light	Light	Light	Light	Light	Light	Light	Light	Light	Light	Light	Light	Light	Light	Light	Light	Light	Light	Light	Light	Light	Light	Light	Light	Light	Light	Light	Light	Light	Light	Light	Light	Light	Light	Light	Light	Light	Light	Light	Light	Light	Light	Light
Optode1-730nm	Optode1-Ambient	Optode1-850nm	Optode2-730nm	Optode2-Ambient	Optode2-850nm	Optode3-730nm	Optode3-Ambient	Optode3-850nm	Optode4-730nm	Optode4-Ambient	Optode4-850nm	Optode5-730nm	Optode5-Ambient	Optode5-850nm	Optode6-730nm	Optode6-Ambient	Optode6-850nm	Optode7-730nm	Optode7-Ambient	Optode7-850nm	Optode8-730nm	Optode8-Ambient	Optode8-850nm	Optode9-730nm	Optode9-Ambient	Optode9-850nm	Optode10-730nm	Optode10-Ambient	Optode10-850nm	Optode11-730nm	Optode11-Ambient	Optode11-850nm	Optode12-730nm	Optode12-Ambient	Optode12-850nm	Optode13-730nm	Optode13-Ambient	Optode13-850nm	Optode14-730nm	Optode14-Ambient	Optode14-850nm	Optode15-730nm	Optode15-Ambient	Optode15-850nm	Optode16-730nm	Optode16-Ambient	Optode16-850nm
290.001327222897	140.802371724114	562.865181162433	1363.73475485912	232.0898969099	1883.63015953002	663.24471883233	141	1232.10157770233	999.664644924697	160.790621921506	1374.62763112246	1045.678887905	130.04072345119	2257.19427606384	986.059583072474	149.351196158694	1399.47173715139	634.164387243995	128	1105.91661655829	1093.2098297274	171.844596121488	1459.96116190731	863.210885929935	141.005977475148	1492.74933005076	1499.75927046971	186.244469088175	2134.41500643059	1312.44713813014	139	2330.12821960731	775.326723050163	149.09091362322	1059.45136264437	662.859802424958	127.95927654881	1446.54568037493	974.224041550626	137.84537917001	1881.62367240017	363.815715948506	127.136611235721	936.209024158954	687.859697608503	179.005772327461	1101.37086882161
290.005977475148	140.797835577687	563.355685672991	1364.15571740526	232.141698521225	1886.42289184212	663.201764385479	141	1233.22667101772	1000.16485207299	160.793185325436	1376.60762874012	1045.62324208553	130.061156926116	2259.12151806739	986.349206410539	149.315921125904	1401.06202403933	634.111107820018	128	1106.37360484921	1093.96567348534	171.881190511088	1461.885433294	863.137008935451	141.005977475148	1493.611444342	1500.00701929916	186.298007707008	2137.44506459479	1312.03675482289	139	2331.98261623945	775.31122889978	149.087424377527	1060.98682129406	662.924478821391	127.976220778044	1448.36843020547	974.483123321237	137.875138566887	1884.52698370578	363.740284356577	127.178400051946	937.113863216394	687.860863101185	179.022451999059	1102.55800330805
290.017727277756	140.803698947011	563.924360797824	1364.84933412435	232.136424112951	1889.58961069296	663.268343922829	141	1234.61347137161	1000.84046325967	160.802371724114	1378.88450990337	1045.59550523214	130.082403674188	2261.52011516706	986.747403958074	149.297370057034	1403.05977838674	634.083155585149	128	1107.13869045731	1094.85103579857	171.911618850664	1464.30345714603	863.042807253956	141.011749802608	1494.70500106394	1500.32136147967	186.368029490835	2140.7775697246	1311.65650953611	139	2334.30457094976	775.38607195544	149.09668595068	1062.7762791518	663.011954950295	127.988250197392	1450.59979597956	974.792331963719	137.905846523204	1887.88633515676	363.665760488393	127.220340094979	938.178501364808	687.911827946694	179.04072345119	1104.04208174335
290.040179276815	140.820383356211	564.560210917939	1365.81039974003	232.088865403	1893.02949981272	663.441640920279	141	1236.22483491365	1001.66357733693	160.820383356211	1381.37052125107	1045.60244805241	130.101082211157	2264.36310918876	987.242508208026	149.301244860811	1405.43051799261	634.082900572289	128	1108.20346623529	1095.84200693036	171.937515850987	1467.16542849911	862.920035220364	141.023779221956	1496.05589329965	1500.68501047099	186.452519943772	2144.3986414519	1311.3278233658	139	2337.11707902525	775.562470492773	149.11925992165	1064.79835151025	663.117611848605	127.995349747749	1453.10001819125	975.144387687546	137.934192821633	1891.51298444993	363.597407766973	127.257457979105	939.318533630162	688.015564603644	179.061156926116	1105.73519898159
290.077579698651	140.844051947113	565.241392439916	1366.98554668659	232.007947419426	1896.57555709093	663.701380081268	141	1237.98586891086	1002.58106089066	160.84537917001	1383.92752868746	1045.6360650426	130.1138973788	2267.54456117965	987.797952735331	149.325639015066	1408.05273424049	634.103790308212	128	1109.50633912065	1096.8875283911	171.957949325913	1470.32960827878	862.760650300113	141.04072345119	1497.64803631483	1501.0565794137	186.545175381674	2148.21089423241	1311.0603085764	139	2340.3926304494	775.826467215626	149.151106166848	1066.98527991797	663.242470222805	127.998672777103	1455.71853427063	975.529415651669	137.957949325913	1895.17572607719	363.540115344812	127.284568096502	940.447003597072	688.168874092729	179.082403674188	1107.5247752363
290.13163707441	140.870488314637	565.937138554898	1368.28975341954	231.899856630202	1900.02340839218	664.015031598554	141	1239.79238803667	1003.52871278209	160.875138566887	1386.38804724024	1045.67318929947	130.118459717673	2270.8878355287	988.356060884749	149.363714554144	1410.73251885277	634.12704127331	128	1110.9384998253	1097.90919894142	171.970243302896	1473.57555852572	862.553729781721	141.061156926116	1499.41129276236	1501.3721861336	186.636983280774	2152.0242870752	1310.84170280991	138.998672777103	2344.02346556	776.137520099791	149.188131330422	1069.22217361269	663.391095818769	128	1458.30901552564	975.936580387785	137.976220778044	1898.63454366014	363.499220870109	127.297383264146	941.489780106817	688.362192928111	179.101082211157	1109.28971283265
290.20201132925	140.894096720595	566.614443196766	1369.62247982167	231.768437121333	1903.18505745639	664.3423737794	141	1241.53697821624	1004.44134728339	160.905846523204	1388.59695619072	1045.68230791354	130.1138973788	2274.17600933361	988.854907875968	149.405674393882	1413.25000886268	634.129633430691	128	1112.36228131048	1098.82294552133	171.971850142533	1476.64985255721	862.288239017963	141.082403674188	1501.22606405629	1501.56155241286	186.716556885998	2155.59139468009	1310.64363284393	138.995349747749	2347.81930975696	776.441987967799	149.224642613818	1071.3618329045	663.563231120257	128	1460.73722621625	976.348278495595	137.988250197392	1901.6682117483	363.477080176423	127.294841245487	942.388758486389	688.580168493859	179.113897378801	1110.91424326174
290.284822088276	140.910413599677	567.239367944777	1370.89092372597	231.619181533966	1905.9119808945	664.644586515271	141	1243.11624038981	1005.2666093594	160.934192821633	1390.43413399091	1045.62769332845	130.101082211157	2277.19023756618	989.238009767494	149.440516149389	1415.40532007271	634.084340029949	128	1113.6365201105	1099.54948974961	171.958493500288	1479.31505508744	861.95401507144	141.101082211157	1502.94718262414	1501.56339794055	186.773426400272	2158.65768377376	1310.42381457815	138.988250197392	2351.53361275312	776.684671066112	149.255703041147	1073.25369648036	663.752631984821	128	1462.90251433098	976.741343784235	137.995349747749	1904.12185179811	363.473243197318	127.277730799914	943.113428215354	688.802311869437	179.118459717673	1112.30889369162
290.3736357399	140.917225874723	567.785824840838	1372.02335589241	231.46120361609	1908.13191791958	664.889817217876	141	1244.45507217769	1005.97123560314	160.957949325913	1391.83823676329	1045.48093296495	130.082403674188	2279.75380540248	989.467752953279	149.459622401418	1417.06235082542	633.96920776082	128	1114.64643499499	1100.03467703966	171.929519851706	1481.3998967736	861.545175360873	141.113897378801	1504.43149250072	1501.34388416356	186.799489616933	2161.01775501477	1310.14121840172	138.976220778044	2354.90141050854	776.822134591064	149.276136516073	1074.76906413329	663.944625919313	128	1464.73570986984	977.089164375256	137.998672777103	1905.91720344176	363.484555122985	127.250508614521	943.655885817255	689.006314601951	179.113897378801	1113.41446361166
290.459098906892	140.915063851928	568.238479777797	1372.97514021462	231.306439287437	1909.8532794016	665.055332702727	141	1245.51272752797	1006.54245581023	160.976220778044	1392.8150839718	1045.22846202695	130.061156926116	2281.7653856514	989.535750292857	149.458321370967	1418.17654681868	633.771895593941	128	1115.32502776078	1100.26467167655	171.886369820086	1482.83583911373	861.066324873458	141.118459717673	1505.57336663802	1500.91299797629	186.790783226939	2162.57184498865	1309.76922976574	138.95927654881	2357.69516402674	776.835231347241	149.28326706605	1075.83039399268	664.117938305816	128	1466.21200275337	977.367145538818	138	1907.07562051016	363.504044845646	127.219014909909	944.032170357796	689.171104039826	179.101082211157	1114.21210881839
290.530538526769	140.905846523204	568.593204093584	1373.72840108558	231.168493321871	1911.15068514435	665.129774501809	141	1246.28214824849	1006.98163051826	160.988250197392	1393.42193123174	1044.86801664512	130.04072345119	2283.20992471204	989.455421986386	149.435319684936	1418.7969413933	633.490256047377	128	1115.66133994923	1100.25884085825	171.832660177739	1483.66201463689	860.525512310834	141.113897378801	1506.32133647828	1500.31770279194	186.750430226838	2163.33847826195	1309.29513836575	138.938843073884	2359.75450930408	776.726719674499	149.276136516073	1076.41593376729	664.251644937876	128	1467.35069520818	977.560165979621	138	1907.70920418155	363.524390407195	127.188934303745	944.277220518766	689.280265290824	179.082403674188	1114.72146135802
290.579409341988	140.894267536593	568.860278841361	1374.29117319944	231.060031943617	1912.15337005936	665.11299418866	141	1246.8000517745	1007.30690265372	160.995349747749	1393.76369989788	1044.41336020154	130.025106444853	2284.16333078754	989.266040990731	149.394706864801	1419.04921359647	633.134507326413	128	1115.70311312546	1100.07275483325	171.775790663465	1484.01712236466	859.93837959273	141.101082211157	1506.69334084638	1499.6317633652	186.685156656985	2163.46266990252	1308.72004890184	138.917596325812	2361.01994654521	776.516644774101	149.255703041147	1076.56500575695	664.327990668034	128	1468.2029940134	977.662116469726	138	1907.98771980351	363.538267465105	127.164364526319	944.433237207986	689.324024476109	179.061156926116	1114.98932306457
290.598089557645	140.883448175406	569.059788364274	1374.68358505814	230.990710102108	1913.01001742263	665.015145606912	141	1247.13141035825	1007.54030011109	160.997345554206	1393.96615815932	1043.88797616891	130.016400054859	2284.76804450089	989.01693873478	149.342124879833	1419.1021757367	632.722761735693	128	1115.54084410044	1099.77984325148	171.723863483927	1484.10298671406	859.324486270503	141.082403674188	1506.76734560503	1498.94372908721	186.607052860384	2163.17981480901	1308.05832220867	138.898917788843	2361.5374266706	776.236963300689	149.224642613818	1076.36561694218	664.340811885134	128	1468.84804507775	977.683714696801	138	1908.11620104371	363.54107486602	127.146906347334	944.547762527905	689.302643266365	179.04072345119	1115.0820280692
290.583854446552	140.876890030076	569.215704883692	1374.93559161393	230.965880504648	1913.8524991125	664.853491275731	141	1247.35448062737	1007.70699661289	160.995349747749	1394.14544074685	1043.31523540386	130.016400054859	2285.19783003998	988.754934213785	149.285607836572	1419.1252886488	632.276642903937	128	1115.28520744058	1099.45265912347	171.685239229338	1484.1366904644	858.704286119311	141.061156926116	1506.65809322571	1498.33207056402	186.530356541486	2162.75946818076	1307.32904254751	138.8861026212	2361.43509041578	775.91896958929	149.186804107525	1075.93086542311	664.292192140718	128	1469.3655822771	977.642308212657	137.998672777103	1908.27436671401	363.529994352394	127.136611235721	944.653588105134	689.22145035576	179.023779221956	1115.06405509978
290.536590470969	140.874352818591	569.351358541125	1375.07922674298	230.986059849857	1914.77957339061	664.650665571024	141	1247.54719036236	1007.82992110272	160.986922974495	1394.39301658961	1042.71646679126	130.025106444853	2285.62823022958	988.514023433297	149.232719285566	1419.2565701559	631.815363995908	128	1115.04537574483	1099.15039184741	171.66656069237	1484.31152681771	858.100048220896	141.04072345119	1506.49277742337	1497.85874668412	186.4663999426	2162.45406288241	1306.55771543216	138.881540282327	2360.89927723171	775.59176419039	149.147783137494	1075.38162826441	664.196884782084	128	1469.82963640126	977.56313309289	137.995349747749	1908.59780810028	363.505149765402	127.130297433659	944.772363957107	689.093765095259	179.011749802608	1114.99152679377
290.459643081267	140.87381134399	569.482389986265	1375.13764729519	231.048282141009	1915.82893919803	664.424717189154	141	1247.76555285567	1007.9195566792	160.970243302896	1394.74923992493	1042.10360299607	130.04072345119	2286.19433677957	988.30431667573	149.188957021421	1419.56977651876	631.351644553604	128	1114.90551600238	1098.90291443812	171.671123031242	1484.75422504494	857.534446974975	141.025106444853	1506.38540973624	1497.55890624685	186.42488593594	2162.45121178862	1305.77416282474	138.887429844096	2360.14108201596	775.278108416148	149.113487594189	1074.8292376761	664.075728364123	128	1470.29302810418	977.4761657395	137.988250197392	1909.15368145096	363.468945623596	127.124437192821	944.90671007179	688.938580820114	179.004650252251	1114.90431748386
290.357212967365	140.870895399474	569.615201913733	1375.1241100414	231.144714099915	1916.98082425509	664.186074710264	141	1248.03238293305	1007.9718385769	160.942876493951	1395.20019617177	1041.47794622203	130.061156926116	2286.97200393655	988.111067116882	149.159170099694	1420.0706359313	630.88907107214	128	1114.90961064449	1098.70857025934	171.698054396982	1485.51070685503	857.027687360649	141.016400054859	1506.41097680141	1497.43612590418	186.408840855403	2162.83792530772	1305.00796744169	138.903568041094	2359.3498189061	774.994107677179	149.089306783583	1074.35657326893	663.951926955021	128	1470.78365617744	977.405636353769	137.976220778044	1909.93791933994	363.424370086305	127.115224601697	945.045122790526	688.775919491007	179.001327222897	1114.82384385419
290.236915910952	140.861286092909	569.749117459621	1375.05143937005	231.267043059144	1918.18182539279	663.941009438372	141	1248.34246453798	1007.97662635551	160.90331404932	1395.69170713103	1040.83611805404	130.082403674188	2287.97672991089	987.903858680881	149.144177432488	1420.70871361447	630.425381585472	128	1115.06573790623	1098.54242840828	171.742542020895	1486.55240724897	856.594682584056	141.016400054859	1506.60541293938	1497.46609075431	186.415402059646	2163.60715084739	1304.28338008022	138.92934612842	2358.68091485067	774.74655915499	149.080902728005	1074.02014145667	663.845910137273	128	1471.30619470781	977.371357489618	137.95927654881	1910.89337842434	363.375650497892	127.101082211157	945.168047153161	688.626895227364	179	1114.7605688934
290.107059686304	140.841343850058	569.878215204515	1374.92697113711	231.406024165121	1919.35796305742	663.686937712529	141	1248.6654016589	1007.91508304519	160.853093652666	1396.14425103569	1040.1754209686	130.101082211157	2289.16663842296	987.650134971316	149.143915933765	1421.39958578279	629.957628465135	128	1115.34858467506	1098.37007190009	171.797037411537	1487.79514410177	856.240857776105	141.025106444853	1506.95855156581	1497.59662980003	186.43796830247	2164.66766987782	1303.61285428051	138.96262229584	2358.22791254471	774.535220930595	149.089609117999	1073.84321238474	663.772308007366	128	1471.85234310284	977.383634890278	137.938843073884	1911.93747068733	363.326610904502	127.082403674188	945.259264451127	688.510199776011	179	1114.72262678055
289.977112419793	140.810635893741	569.997516321411	1374.7705773717	231.553177914636	1920.44988310065	663.421739142913	141	1248.96431245622	1007.7765194741	160.797037411537	1396.48217601698	1039.50375217698	130.1138973788	2290.46194832601	987.333500674229	149.155403878512	1422.05154931987	629.487405773381	128	1115.71420510403	1098.1687112563	171.853093652666	1489.12829175607	855.964613202461	141.04072345119	1507.43299643705	1497.76797464629	186.467456018268	2165.88698461542	1303.00005369654	139	2358.03602912625	774.355409090852	149.113630179914	1073.82778277045	663.736652680322	128	1472.41076331712	977.441804579203	137.917596325812	1912.98946937492	363.279744120964	127.062484149013	945.313004539293	688.439009596142	179	1114.72176531858
289.856605478092	140.772472441285	570.106099533633	1374.6123022519	231.702883934741	1921.43177388714	663.146628089066	141	1249.21029422501	1007.56286926226	160.742542020895	1396.65847476259	1038.84300195416	130.118459717673	2291.77240193675	986.963547977007	149.176910446619	1422.59470546473	629.026282691817	128	1116.11647378794	1097.93881402107	171.903314049319	1490.44833318885	855.75515875503	141.061156926116	1507.98044887214	1497.91787286906	186.496142321966	2167.13173474301	1302.43422245082	139.03737770416	2358.10953657566	774.197415386696	149.148210852555	1073.96075934942	663.737549613471	128	1472.97158736642	977.538095543286	137.898917788843	1913.98903452023	363.237807552701	127.046700926337	945.33803008036	688.421299237481	179	1114.77721919922
289.753502946721	140.733329429772	570.208685805798	1374.49483306853	231.851789147445	1922.32050113365	662.869432277963	141	1249.3939499493	1007.29490210708	160.698054396982	1396.66644543725	1038.23038344502	130.1138973788	2293.01953831703	986.582361403664	149.206138224917	1422.99915311871	628.595590511778	128	1116.51714596635	1097.71320031192	171.942876493951	1491.68474244956	855.602365076077	141.083730897085	1508.55219146523	1498.01006849036	186.519833630544	2168.30040710869	1301.90716267253	139.07065387158	2358.42272663202	774.056213112208	149.186140331139	1074.21938547875	663.768790588538	128	1473.54060259441	977.664689749948	137.8861026212	1914.91732815371	363.203321396693	127.040179276815	945.361226498065	688.45879417595	179	1114.91750855699
289.673751284591	140.701289512958	570.319249251998	1374.46464604572	231.998672777103	1923.18578369161	662.604142098198	141	1249.54114199321	1007.0087249346	160.671123031242	1396.55607675046	1037.71376255825	130.101082211157	2294.16081351521	986.258343825418	149.241936614291	1423.28549896996	628.224830210161	128	1116.89836572588	1097.55090658879	171.970243302896	1492.81422208246	855.499465306478	141.105732463407	1509.12098592833	1498.04120936221	186.53879638391	2169.35677141253	1301.41925667258	139.096431958906	2358.95509878133	773.934454413456	149.219629842208	1074.58918378168	663.820047029297	128	1474.13143163281	977.814536559697	137.881540282327	1915.78913008792	363.178325582894	127.048606050069	945.417310666239	688.548032067865	179.001327222897	1115.17112584676
289.618330605985	140.683938198886	570.457670249648	1374.56333800819	232.143560600305	1924.13385104588	662.368437095333	141	1249.70827867796	1006.74897730407	160.66656069237	1396.41923847439	1037.33576961732	130.082403674188	2295.20492973467	986.066739507235	149.286149311173	1423.52203999716	627.941390102719	128	1117.26512096669	1097.51713202413	171.986922974495	1493.8627896099	855.445083246663	141.126974404306	1509.68569438905	1498.04201644703	186.557199993848	2170.33472654849	1300.98225189467	139.113897378801	2359.70681386902	773.844139040654	149.245434121979	1075.06603463721	663.88451389958	128	1474.76876928622	977.991733061026	137.8861026212	1916.65470229924	363.166367932825	127.073803177647	945.547843645513	688.684717772639	179.004650252251	1115.56471999529
289.586700832921	140.685239229338	570.645627856783	1374.82299905057	232.285366262651	1925.28198209984	662.181619968264	141	1249.96888528733	1006.56072723396	160.685239229338	1396.37213379077	1037.12319383869	130.061156926116	2296.1914505781	986.068008036237	149.339687930007	1423.7968276659	627.764184998398	128	1117.63482889924	1097.66532975609	171.995349747749	1494.88326714605	855.442294866857	141.14688919188	1510.26491028151	1498.06662912403	186.580209408022	2171.31732148501	1300.62080553469	139.123109969924	2360.69523235761	773.803577278348	149.26078657068	1075.65668829793	663.954910512958	128	1475.47057834972	978.201564203662	137.898917788843	1917.564644631	363.171733175448	127.114957402811	945.782135600381	688.861272885797	179.011749802608	1116.10927022061
289.575740544749	140.705158754513	570.902955433461	1375.26482395109	232.423042863408	1926.73495545945	662.060393091677	141	1250.3971126358	1006.48073370626	160.723863483927	1396.52662556974	1037.07772113642	130.04072345119	2297.17656117022	986.289466721026	149.403652257038	1424.19172863368	627.695466682689	128	1118.0308338872	1098.01445518745	171.998672777103	1495.93303901697	855.495312245405	141.166370632599	1510.88151288254	1498.17559233659	186.612760215675	2172.39704041214	1300.36358319842	139.125647181409	2361.93773810486	773.831597939404	149.267452843755	1076.36764370885	664.026833152539	128	1476.24561904993	978.450876422494	137.917596325812	1918.56384743929	363.197444252777	127.167339822261	946.136103051194	689.067932567413	179.023779221956	1116.7982806902
289.58070996846	140.739646706602	571.242969775837	1375.89207167237	232.554579606586	1928.56291494939	662.01549688947	141	1251.0507967881	1006.52968863753	160.775790663465	1396.96795652536	1037.17719076351	130.023779221956	2298.21577229274	986.720526976157	149.477364530763	1424.76629242956	627.723512512959	128	1118.47351297718	1098.5508132963	172	1497.05498024642	855.604677872635	141.186018359229	1511.5506711605	1498.41724719532	186.656809755131	2173.64145448147	1300.23678220889	139.124861433113	2363.43597030991	773.942442653993	149.268422033417	1077.19935952593	664.093370428275	128	1477.08444708723	978.736496932327	137.938843073884	1919.66604503511	363.24273478044	127.224209336535	946.604196807754	689.291343737799	179.04072345119	1117.60472382667
289.596871854594	140.780985090091	571.666366906339	1376.68920888089	232.677777489888	1930.77376770356	662.047473201483	141	1251.94906670525	1006.70427013478	160.832660177739	1397.72941972839	1037.37633261888	130.011749802608	2299.32797723924	987.309278486102	149.558164493801	1425.52947847345	627.820882050392	128	1118.96541328449	1099.21994898484	172	1498.25159601261	855.765811379385	141.205530799567	1512.26733771421	1498.81634583003	186.710786458422	2175.06012836559	1300.25622989166	139.123127125378	2365.15353923903	774.142314108838	149.266687725683	1078.13460700503	664.146159932562	128	1477.967053331	979.045603115816	137.95927654881	1920.85830310255	363.303951057982	127.276136516073	947.164574707762	689.515070951158	179.061156926116	1118.48704996108
289.617937486846	140.820910375131	572.16211746861	1377.62241941934	232.791936726549	1933.32131604323	662.142874393082	141	1253.0713395342	1006.97577140714	160.886369820086	1398.78811956703	1037.61954860419	130.004650252251	2300.50562072722	987.977490830874	149.641721446403	1426.44486337272	627.952561224132	128	1119.49669812223	1099.9443042395	172	1499.4920334143	855.963210576701	141.223396063389	1513.0059466649	1499.35941185342	186.771140411214	2176.59668448006	1300.41470193544	139.122313852233	2367.01309890399	774.421984705071	149.264119514579	1079.13637487381	664.174595165455	128	1478.87102183585	979.355419098059	137.976220778044	1922.10501129495	363.3736357399	127.314760770662	947.787582765848	689.721531047309	179.083730897085	1119.40013388549
289.639204449286	140.852745919253	572.709252095292	1378.64144731439	232.898119622694	1936.11369603132	662.27918888818	141	1254.36083477558	1007.2977275392	160.930847074603	1400.07432041684	1037.85411383595	130.001327222897	2301.71411190369	988.641779181223	149.722796219006	1427.44196525227	628.083284126685	128	1120.04638074565	1100.64304648341	172	1500.72233905965	856.175860733062	141.237024504179	1513.73327306891	1500.0006399564	186.831332954842	2178.15037025668	1300.68081711105	139.123127125378	2368.91187695689	774.758278705907	149.260803726135	1080.15323518936	664.164696545752	128	1479.78082778265	979.634448597492	137.988250197392	1923.3616508753	363.439969937187	127.33343930763	948.442473931169	689.891624260084	179.105732463407	1120.30327816694
289.655391697886	140.873013177841	573.282022553448	1379.68608718134	233	1939.03920457648	662.426967690248	141	1255.73945474527	1007.61290578099	160.963143752539	1401.49026982926	1038.03845172454	130	2302.89998970717	989.230354872576	149.794927140118	1428.43326226547	628.18561206365	128	1120.58689569505	1101.24562210767	172	1501.87794450611	856.376275937528	141.243321150786	1514.41677780824	1500.66776796122	186.886369820086	2179.59683350314	1301.00179232856	139.124861433113	2370.73467100082	775.117614755894	149.255070953394	1081.12303154055	664.106624839403	128	1480.70003127744	979.853465441425	137.995349747749	1924.59281315224	363.491142298476	127.330204191655	949.110004931804	690.01114413971	179.126974404306	1121.17202498256
289.664350089719	140.882067301247	573.853958677188	1380.69647151959	233.101880377306	1941.98428603222	662.556324121042	141	1257.12512531773	1007.86755405973	160.983599945141	1402.92955458026	1038.15404436173	130	2304.03080183862	989.70130975971	149.853168121718	1429.34645870714	628.244001213144	128	1121.10436170777	1101.7105376064	172	1502.91598239481	856.541337463514	141.240871783106	1515.0461596384	1501.28116348983	186.9321742975	2180.83806363755	1301.31643606006	139.125647181409	2372.40316541021	775.462444997646	149.245522035357	1081.99561840591	663.995340237185	128	1481.64615166875	979.990851290367	137.998672777103	1925.77396068058	363.516925192975	127.306595855269	949.78000547251	690.073093659123	179.148216414777	1121.9964132129
289.662582686016	140.882517733985	574.399329217045	1381.61809114259	233.209390496348	1944.83961993649	662.640999373816	141	1258.43463344223	1008.01725900457	160.994022524852	1404.28290457147	1038.20153481314	130	2305.07451978105	990.041807894633	149.891359099024	1430.12171189871	628.25666251273	128	1121.58948593655	1102.0259313343	172	1503.80882022145	856.655085415127	141.228842433331	1515.63758763658	1501.77130243985	186.967794004789	2181.82344343344	1301.56719057633	139.123109969924	2373.8947621004	775.758080256964	149.230169656228	1082.74175751819	663.836685987127	128	1482.65308010867	980.041548995931	138	1926.90495117252	363.512362854103	127.27053500461	950.45771249351	690.080001575692	179.172348107746	1122.78544838051
289.64804351046	140.880125146052	574.895546008064	1382.41370777542	233.326872762363	1947.50637135203	662.663210552268	141	1259.59276730152	1008.03491340637	160.998672777103	1405.45110398768	1038.19530260658	130	2306.00559143735	990.263644721394	149.90602024649	1430.71559591888	628.231993550643	128	1122.03901264461	1102.20624640578	172.001327222897	1504.54660369929	856.712705451212	141.209378078494	1516.22425835219	1502.09015666653	186.996676970646	2182.55085171379	1301.71010226327	139.116551824594	2375.22908877368	775.977935226572	149.210705301391	1083.35016153217	663.642826366159	128	1483.75313738133	980.015254955186	138	1927.9904048149	363.476999907935	127.23139206267	951.150012255876	690.04209000761	179.203745636985	1123.55425005864
289.619588618803	140.88021305943	575.323399895304	1383.06765777028	233.457170196022	1949.90325717079	662.616924662445	141	1260.54048172705	1007.91489699671	161	1406.35373016016	1038.15734558988	130	2306.80321565685	990.395495076558	149.895318050039	1431.10302620237	628.185166986519	128	1122.45259188238	1102.28518311882	172.005977475148	1505.13347955461	856.717059119737	141.186018359229	1516.84693912448	1502.22003662194	187.022451999059	2183.06540683304	1301.72085938657	139.105732463407	2376.45782544167	776.104760506084	149.19066861148	1083.82888044395	663.43426917149	128	1484.96751380633	979.936373486451	138	1929.04090330293	363.416641147968	127.200706824029	951.864232299747	689.975771752571	179.247037299278	1124.31760011259
289.577218773257	140.884775398303	575.666317517008	1383.58489584534	233.599409135651	1951.96272437733	662.506484633189	141	1261.23312659362	1007.67088644457	161	1406.92813999356	1038.10279181218	130	2307.44158921199	990.465090612944	149.861263375233	1431.26820842068	628.129296237854	128	1122.82556391373	1102.29590007326	172.016400054859	1505.57614124663	856.67953536398	141.163850576568	1517.53693340386	1502.17203290684	187.051146030901	2183.43653725718	1301.59634094195	139.094153476797	2377.63651632124	776.133974508057	149.175600379176	1084.19571567574	663.230885723598	128	1486.29568185228	979.837676726121	138	1930.05917316406	363.340639189219	127.186272351003	952.599445944483	689.898035486088	179.305626014291	1125.08310982163
289.522635469237	140.894267536593	575.913635454112	1383.99211235673	233.750706936288	1953.64065828779	662.346702474276	141	1261.64665791794	1007.33361303092	161	1407.14480234283	1038.0372597148	130.001327222897	2307.89866274523	990.493276411216	149.811065696255	1431.20798527932	628.073714439649	128.001327222897	1123.14724694596	1102.26908979236	172.036856247461	1505.88450680963	856.608949836535	141.146093074189	1518.29500288745	1501.97437212603	187.084936148072	2183.72697788156	1301.34610305171	139.084936148072	2378.78224820198	776.068733543387	149.169872296145	1084.46504045162	663.047285682805	128	1487.70974543254	979.748201269905	138	1931.03791770058	363.258411138202	127.192000434035	953.34522607303	689.821495131598	179.380411381197	1125.84637565401
289.462291698802	140.905846523204	576.060633239219	1384.33487057289	233.905846523204	1954.92859036756	662.162798163237	141	1261.78646533021	1006.95275150118	161	1407.01393594154	1037.95932316314	130.004650252251	2308.16259365143	990.496001768681	149.754029965642	1430.93573978365	628.022302172424	128.004650252251	1123.40558095249	1102.22889869617	172.070480148294	1506.07215281415	856.512639779966	141.134876927986	1519.09802061449	1501.66751188116	187.123127125378	2183.9899961108	1300.99103128581	139.08144690238	2379.8813171632	775.920491569678	149.175600379176	1084.65111516017	662.891459601827	128	1489.15421497556	979.690771833137	138	1931.95448715201	363.177762401972	127.215775056333	954.079190468469	689.75272297706	179.469111701992	1126.59061448121
289.403652257038	140.915063851928	576.113086568216	1384.66230626257	234.058624452232	1955.85412066498	661.981831800072	141	1261.68446056452	1006.58226140501	161	1406.58952709812	1037.86413123071	130.011749802608	2308.25498968399	990.485432375087	149.702616735854	1430.497740797	627.977234391703	128.011749802608	1123.59594777921	1102.1950734372	172.119607655062	1506.17171283772	856.395137708348	141.129511685363	1519.89956486916	1501.29502391186	187.16356636017	2184.26362224715	1300.56020193584	139.084936148072	2380.8976243027	775.709740011293	149.191995834377	1084.77193655339	662.763197798963	128	1490.5639509259	979.675182313489	138	1932.78859001532	363.103207600203	127.250101529684	954.775870679324	689.692717650669	179.566417322572	1127.29596060551
289.356087984866	140.917225874723	576.085517607513	1385.02095808008	234.205246583168	1956.48222450559	661.830650143085	141	1261.40156495295	1006.27897363304	161.001327222897	1405.96555090786	1037.7564047459	130.025106444853	2308.23360474038	990.481399011764	149.66656069237	1429.97120196969	627.943938369054	128.025106444853	1123.72693984225	1102.19482684681	172.185067100016	1506.2345959263	856.263559909524	141.126974404306	1520.65442714863	1500.90659542134	187.202278528136	2184.58272269174	1300.09369296982	139.094153476797	2381.8096507297	775.465999003461	149.215355553642	1084.86052217191	662.656478990439	128	1491.88607276642	979.701982276469	138	1933.53964532291	363.034951123729	127.285349107197	955.415051536919	689.64007893558	179.664962322244	1127.95150752546
289.328983033782	140.910413599677	576.003839668248	1385.44778519621	234.344084190483	1956.91373833303	661.730706579949	141	1261.02248222017	1006.09033429025	161.005977475148	1405.2675683121	1037.65111430466	130.045373703441	2308.19423004659	990.510964818663	149.653745524726	1429.46111221849	627.932716394592	128.045373703441	1123.82389525031	1102.25897797563	172.265715836247	1506.33321523885	856.12676637011	141.123109969924	1521.33731197426	1500.5479925458	187.237269206585	2184.99070882945	1299.63546181907	139.105732463407	2382.63786620845	775.224519585711	149.241919458836	1084.96904509177	662.566781693024	128	1493.09407556702	979.76677352668	138	1934.23022289059	362.972353574315	127.311525654686	955.986699554461	689.595755341605	179.758185357619	1128.561692309
289.328816817443	140.894096720595	575.901904850422	1385.9659980258	234.476826184648	1957.2743794911	661.696069197134	141	1260.64914791282	1006.05166180868	161.016400054859	1404.63845463063	1037.57818533184	130.072906728724	2308.2589582828	990.614981565926	149.66656069237	1429.09010456265	627.962091786987	128.072906728724	1123.92996851667	1102.4299947344	172.358366466975	1506.55548407899	856.000436203639	141.115224601697	1521.9550413964	1500.26454829991	187.269301257313	2185.545095602	1299.23477092296	139.115224601697	2383.4587910969	775.023753823573	149.27062848021	1085.16718143638	662.492897512642	128	1494.2106147134	979.867036684323	138	1934.92630866714	362.914519677553	127.320624139986	956.502189206615	689.565804241366	179.840016627161	1129.15699904018
289.359947681647	140.870488314637	575.82017377417	1386.58557647291	234.608901273942	1957.70560947889	661.732575673356	141	1260.39047825714	1006.17827857566	161.036856247461	1404.22171907179	1037.57522450221	130.106182896144	2308.55940823189	990.838446899651	149.702616735854	1428.98145628818	628.054886096846	128.106182896144	1124.10111056957	1102.74724309383	172.45814764768	1506.99396684637	855.902849747524	141.101082211157	1522.54790898928	1500.0954874068	187.301771879731	2186.31045671815	1298.93887001531	139.118459717673	2384.39997528254	774.899554480233	149.300444656835	1085.53452232592	662.441051005571	128.001327222897	1495.29936683449	980.005714165181	138.001327222897	1935.72261341345	362.86374409774	127.310198431789	956.990873445368	689.563633956575	179.910413599677	1129.79098008686
289.42182996753	140.844051947113	575.798539893128	1387.30790815291	234.747192273146	1958.34785964939	661.838102989076	141	1260.34592310126	1006.46720386334	161.070480148294	1404.13693629645	1037.67453719909	130.143132885243	2309.20766079705	991.216843745757	149.756684411436	1429.23573504063	628.230388262822	128.141805662347	1124.39564606654	1103.23835235169	172.559229858837	1507.72724538886	855.852015398929	141.082403674188	1523.17914905832	1500.06864293506	187.339687930007	2187.35161992941	1298.78515492531	139.113897378801	2385.61417951361	774.879968230151	149.335037677756	1086.14683635382	662.425467047312	128.004650252251	1496.46080166347	980.194650583417	138.005977475148	1936.73870966725	362.8238188127	127.280698854946	957.500720686137	689.60877920937	179.971305968158	1130.53489099154
289.50992306656	140.820383356211	575.869078430284	1388.13144979957	234.90059478298	1959.32033994609	662.006603955837	141	1260.58916392686	1006.89931053287	161.118280432165	1404.46492651187	1037.89383471862	130.179704557167	2310.27228011614	991.766313232651	149.820366200756	1429.91232858543	628.49869306193	128.175054304917	1124.86152853312	1103.90779512388	172.655749731121	1508.80463147093	855.858750140624	141.061156926116	1523.91181530977	1500.19207172793	187.388029688479	2188.70582929421	1298.79070542574	139.101082211157	2387.23100763196	774.978560036083	149.376279885871	1087.05676850505	662.463268853821	128.011749802608	1497.79521206411	980.450654026691	138.016400054859	1938.07858797167	362.802747687799	127.237024504179	958.08175725626	689.721880332537	180.028694031842	1131.45614936623
289.617413526838	140.803698947011	576.049236548675	1389.05918290662	235.077147196364	1960.70382520091	662.227584779651	141	1261.15261223101	1007.44462974528	161.180416847766	1405.22927359882	1038.22460536652	130.21261319447	2311.76410434269	992.46976779376	149.886090203346	1431.01930399553	628.852476135028	128.200863391861	1125.53045822361	1104.72628034191	172.742715744182	1510.23552850207	855.920590687723	141.042050674087	1524.78899331349	1500.45050630704	187.449999887741	2190.37291472875	1298.94752872631	139.082403674188	2389.32316388614	775.191566101456	149.426220665785	1088.28315230128	662.570112051583	128.023779221956	1499.38148052993	980.791498731634	138.036856247461	1939.81300518294	362.807822180341	127.186018359229	958.775215517734	689.92033979561	180.089586400323	1132.60301154753
289.733337711715	140.797835577687	576.336400273396	1390.09602618952	235.284241280152	1962.52926030131	662.489151536406	141	1262.01960380008	1008.06754756798	161.253966033639	1406.39363385889	1038.63009998531	130.238758811913	2313.62437940132	993.272505492035	149.947526746202	1432.4996828757	629.264195883516	128.214979589957	1126.40248815748	1105.63280618248	172.816687837942	1511.97750524234	856.019156428522	141.029756697104	1525.82563704516	1500.80021992538	187.525706289236	2192.30893656202	1299.21436755788	139.061156926116	2391.8832426962	775.493532445601	149.484982838046	1089.80382038514	662.751399486093	128.04072345119	1501.24575360651	981.223978840991	138.069152925397	1941.94921966664	362.843895379281	127.134876927986	959.599913980063	690.208569682115	180.159983372839	1133.98497686208
289.848443400415	140.803698947011	576.707204936906	1391.24924624585	235.525532565949	1964.76384844742	662.780702773577	141	1263.12234826539	1008.73366552033	161.334587245019	1407.86174474183	1039.04719705471	130.255703041147	2315.71408366634	994.085196877066	150.000544174375	1434.22332749038	629.68786555393	128.214979589957	1127.43783998213	1106.53622908177	172.8760898261	1513.92701745736	856.121063787531	141.028149857467	1526.99256764005	1501.17013618076	187.611703112635	2194.41209653945	1299.52070127818	139.04072345119	2394.78491232751	775.838753355348	149.550546186518	1091.53731169215	662.996027841874	128.061156926116	1503.3374980388	981.733552936201	138.113630179914	1944.40184176359	362.910680009305	127.089586400323	960.536597319529	690.573409218758	180.243141865278	1135.55384571703
289.951282277843	140.820383356211	577.12257053315	1392.51678346966	235.800115959681	1967.32212828512	663.088960778484	141	1264.35766260994	1009.40681880059	161.41742419649	1409.49560627164	1039.39957001595	130.262020317978	2317.83711247483	994.80093609156	150.043429648361	1436.00362894178	630.066842998919	128.200863391861	1128.55856502671	1107.33276039321	172.921115796128	1515.9302416595	856.180994369494	141.040179276815	1528.21950153686	1501.46965859921	187.701556711844	2196.52844419265	1299.77604501038	139.023779221956	2397.79535667769	776.165392480785	149.619153037655	1093.34769398512	663.272953013532	128.082403674188	1505.5245889857	982.276277716188	138.167339822261	1946.98963380539	362.999470943253	127.055127699592	961.526853360654	690.979089219703	180.339687930007	1137.20317294901
290.033598038654	140.84537917001	577.533794383871	1393.86764137084	236.100008980034	1970.06106750976	663.397614861179	141	1265.59866697303	1010.04513625255	161.49807293272	1411.12903351109	1039.61403259997	130.257457979105	2319.75581113172	995.312107407766	150.076426199041	1437.61254549237	630.344899524524	128.175054304917	1129.6527159954	1107.92276361967	172.953299073663	1517.79334569989	856.157357937239	141.065829896043	1529.40662820832	1501.60514012643	187.787286474299	2198.47009492043	1299.89065497822	139.011749802608	2400.60731325826	776.407269644379	149.684877040245	1095.05865919188	663.534117614548	128.101082211157	1507.59892159354	982.781543792007	138.224209336535	1949.44282596601	363.095104736009	127.033079726457	962.475734554497	691.370282155608	180.444005257139	1138.77262582038
290.086846878867	140.875138566887	577.888777873714	1395.23827718353	236.41101344406	1972.79148433589	663.683813127315	141.001327222897	1266.71068841338	1010.5979251902	161.573346056932	1412.58470340203	1039.63440372045	130.2442150964	2321.2116909937	995.532878748467	150.09975498826	1438.80653633838	630.47902835905	128.141805662347	1130.58032252261	1108.22654752041	172.974893555147	1519.29857138923	856.018506185563	141.101880377306	1530.43343862872	1501.4975668177	187.859936152336	2200.03089982897	1299.79549735588	139.004650252251	2402.88137886879	776.505743588266	149.741388521285	1096.47371157194	663.720986680562	128.1138973788	1509.30821773911	983.160147089943	138.27746373897	1951.44461380497	363.176448386187	127.02615405101	963.268747182244	691.680807403747	180.550017267713	1140.0749457378
290.106450361069	140.905846523204	578.139489681027	1396.52967068467	236.713238663818	1975.29334864216	663.92095257001	141.004650252251	1267.56523552707	1011.00607736662	161.640306310128	1413.69123283576	1039.43661404249	130.224730527196	2321.97892353044	995.412783744445	150.1138973788	1439.37163064524	630.448301527863	128.106182896144	1131.20047990679	1108.20151492833	172.986922974495	1520.24375565966	855.756690676081	141.144887823202	1531.17630395927	1501.1024997356	187.914447019745	2201.01885305695	1299.45937266887	139.001327222897	2404.30962167362	776.422484698563	149.784237499463	1097.41296213991	663.777224906973	128.118459717673	1510.40183068011	983.324410036462	138.319411022913	1952.6871406978	363.222779882522	127.034406949354	963.791914440407	691.847080612403	180.647235044488	1140.92866193442
290.090833354732	140.934192821633	578.248858024439	1397.62809008613	236.984183453039	1977.34442058189	664.080734728923	141.011749802608	1268.05757382054	1011.21191365048	161.696812983994	1414.30345654904	1039.02798779745	130.203116249006	2321.88847560255	994.944524927964	150.118459717673	1439.15387889139	630.258504317627	128.072906728724	1131.38937844981	1107.84334654143	172.990699495499	1520.46953485624	855.390386903669	141.189463360493	1531.5317866115	1500.42080587058	187.94674369768	2201.2921384511	1298.89346549396	139	2404.67150883305	776.144194373797	149.809067096923	1097.74298721034	663.657472628359	128.1138973788	1510.67947687875	983.204373937358	138.345189110238	1952.93260092706	363.2167456972	127.058450728946	963.956695811779	691.818372124881	180.725774214722	1141.19468668444
290.043417230507	140.957949325913	578.196866817152	1398.42723917323	237.202398158972	1978.75117828733	664.143248518111	141.023779221956	1268.11739544051	1011.17479474256	161.739902830671	1414.32575576463	1038.44856733407	130.183050304197	2320.86135977997	994.167763355859	150.1138973788	1438.08728223844	629.940144479444	128.045373703441	1131.06143344683	1107.1915244598	172.986922974495	1519.89156384383	854.957392104927	141.231379644816	1531.42979973815	1499.49271182201	187.957166277391	2200.7805720601	1298.14086517427	139	2403.86330738751	775.682246744266	149.815360615045	1097.39946079101	663.338049187592	128.101082211157	1510.03256082435	982.76756943432	138.352656190714	1952.06289065011	363.149873153798	127.098013173577	963.716290721169	691.570406284066	180.776915645964	1140.80482188698
289.972244671575	140.976220778044	577.980689906132	1398.85153030102	237.352226150987	1979.38742658955	664.100249068173	141.042050674087	1267.72376709908	1010.88165827305	161.767039140513	1413.72955659444	1037.76344387681	130.168239330096	2318.93762639965	993.164152273911	150.101082211157	1436.22039911975	629.546468480397	128.025106444853	1130.19481681227	1106.32436710842	172.976220778044	1518.52908175376	854.512305506294	141.267886121038	1530.8518524309	1498.40304652457	187.948648821412	2199.51200745198	1297.27355967491	139	2401.92285242028	775.0729072914	149.80376099821	1096.40210504915	662.823910715682	128.082403674188	1508.46760050137	982.02666954914	138.342669054208	1950.10669629576	363.024891786602	127.151556599585	963.076992635783	691.109020682694	180.794673148344	1139.77640426614
289.887056314148	140.988250197392	577.616452474567	1398.87145945649	237.423355224077	1979.21639104569	663.958264169944	141.067134401264	1266.90625601696	1010.35095881681	161.774637163855	1412.55665259029	1037.05002308623	130.159960655163	2316.28537864824	992.043634511867	150.082403674188	1433.71796700457	629.13882643803	128.011749802608	1128.8429391454	1105.34263477753	172.95927654881	1516.51486267989	854.114888723463	141.29685976962	1529.84208301992	1497.26115347248	187.924438825482	2197.62265361931	1296.37362459056	139	2399.03953890364	774.369924348955	149.776227972927	1094.86030717498	662.14633240728	128.061156926116	1506.12292820822	981.040647143482	138.318614905221	1947.25683026989	362.855285900085	127.214712391071	962.105182775165	690.4702919249	180.776915645964	1138.22019044357
289.79904869476	140.995349747749	577.135652722723	1398.51236202366	237.417753712614	1978.30055573754	663.7395462038	141.098803729047	1265.74122170991	1009.63509777408	161.760852806549	1410.91848018658	1036.3829468168	130.159960655163	2313.18722851673	990.925363757305	150.061156926116	1430.84551467008	628.777560206	128.004650252251	1127.13361733275	1104.35679352084	172.938843073884	1514.08674298638	853.817409397478	141.316859967263	1528.5034041483	1496.18559695619	187.887839628708	2195.34294435905	1295.5233928379	139	2395.52453051461	773.637662005461	149.734284163753	1092.95883342714	661.362843730186	128.04072345119	1503.24727670426	979.907253993788	138.285366262651	1943.84311111377	362.66243745904	127.281237201061	960.91845491863	689.716992467145	180.725774214722	1136.32506259165
289.718085594244	140.998672777103	576.575536266525	1397.85044207256	237.345642450265	1976.79008193094	663.476584561102	141.136611235721	1264.34044683533	1008.81147991917	161.725081942025	1408.9747344369	1035.83010546275	130.1669121072	2310.0053627299	989.926228585383	150.04072345119	1427.93346858837	628.51304325509	128.001327222897	1125.25409951578	1103.47501788443	172.917596325812	1511.55562410367	853.662473162097	141.32704648565	1526.98891669179	1495.29459067125	187.841794282795	2192.97033702151	1294.79931226318	139	2391.77772568736	772.946175637724	149.680338460082	1090.93409709281	660.545128182064	128.023779221956	1500.17185916359	978.744976837203	138.247988558491	1940.28719534827	362.471325004417	127.342669054208	959.670170572301	688.925975144408	180.648562267385	1134.33119997728
289.651727000593	141	575.982796388341	1397.00135201227	237.225946344043	1974.9157232128	663.210108235314	141.178400051947	1262.84521511344	1007.97179704251	161.669804208283	1406.92595879025	1035.4393561816	130.178400051946	2307.14186244148	989.141446135744	150.023779221956	1425.34042752089	628.377455540481	128	1123.42861420865	1102.78669018095	172.898917788843	1509.27016176182	853.671311396315	141.32704648565	1525.47974286204	1494.6793892159	187.789416670519	2190.82894158387	1294.25939399012	139	2388.23832162189	772.360592307716	149.618483699048	1089.04574640501	659.771439541703	128.011749802608	1497.26887692246	977.675379282454	138.210583329481	1937.04710269302	362.306955137072	127.390033894874	958.529564117493	688.179213132186	180.554667519964	1132.50084253773
289.605403766254	141	575.402894359122	1396.10264200732	237.084936148072	1972.9449634391	662.981094582005	141.220340094979	1261.40482438645	1007.21058767868	161.59993059235	1404.97906275022	1035.23831410592	130.191366446397	2304.96301945794	988.637429257942	150.011749802608	1423.3911042637	628.384742258451	128	1121.87866603487	1102.35652335542	172.886102621199	1507.55167776286	853.846897750859	141.316859967263	1524.15313331601	1494.39894104912	187.734633934993	2189.20198255251	1293.94431876029	139	2385.30923031337	771.935359168682	149.554929377825	1087.52909614348	659.112793899986	128.004650252251	1494.89540148268	976.804543205581	138.175583223722	1934.53972181071	362.18901661006	127.415842981819	957.653717107616	687.549180849842	180.455755059747	1131.07675620262
289.582835357506	141	574.879658334681	1395.29398647414	236.948326812236	1971.14606576653	662.825035474135	141.258785202002	1260.15806758081	1006.60681610019	161.524501038249	1403.31929347726	1035.23274551169	130.200951305239	2303.73702936437	988.442246076414	150.004650252251	1422.32164980424	628.529263154959	128	1120.78403087965	1102.21451133219	172.881540282327	1506.63682698856	854.171297169566	141.298186992516	1523.15368703521	1494.46581605074	187.683140032737	2188.28225245203	1293.87280360518	139.001327222897	2383.30468852153	771.706769961447	149.498326924495	1086.56260118857	658.623715590673	128.001327222897	1493.342849764	976.203637140761	138.143654075904	1933.07521816274	362.128119503978	127.415842981819	957.162876596877	687.089369873548	180.36479437486	1130.24880177241
289.583621105802	141	574.448162314395	1394.69040082757	236.840375908964	1969.74139925304	662.764635800004	141.289218348752	1259.21366222279	1006.20988125695	161.451734195476	1402.08151804085	1035.4086618283	130.20349164521	2303.58649512088	988.545710576486	150.001327222897	1422.23797771834	628.791026402301	128	1120.25293915812	1102.35399435885	172.886102621199	1506.63338143643	854.610435010559	141.272536373288	1522.57329382042	1494.84318596169	187.641459809738	2188.13607052229	1294.04087218174	139.004650252251	2382.4082926705	771.687311504443	149.457973924393	1086.23754795333	658.334213025522	128	1492.79678566259	975.900917664154	138.114159236662	1932.81196030094	362.12586183966	127.390033894874	957.123488892274	686.826396396473	180.291170014512	1130.12644553939
289.605386610799	141	574.135703566405	1394.36515672782	236.777220117478	1968.88091802636	662.806529036777	141.309133066754	1258.63693023011	1006.0286259904	161.390833960908	1401.33122027158	1035.733179486	130.196301052989	2304.46006959804	988.897037269262	150	1423.09021797875	629.13865637708	128	1120.29984947318	1102.72677594026	172.897590565946	1507.4927837325	855.113970185182	141.244456670321	1522.44106002435	1495.44419654247	187.615650722794	2188.69504136798	1294.4175553305	139.011749802608	2382.65772587582	771.86078513917	149.440596417877	1086.55121356879	658.248667286176	128	1493.3100028392	975.882874811633	138.087053926439	1933.7368462089	362.174470797019	127.342669054208	957.540048093066	686.759552952805	180.243517828962	1130.72797554115
289.643310527161	141	573.955644579498	1394.34240914636	236.765102784752	1968.62010788381	662.94028980613	141.317293244546	1258.43806978998	1006.03509184902	161.346782742763	1401.05514619002	1036.16403289216	130.179616643789	2306.13739804007	989.417208370333	150	1424.67285670263	629.536256403078	128	1120.84285790745	1103.25872784356	172.911618850664	1509.0177587234	855.623445077981	141.217892834699	1522.72662718475	1496.14753429379	187.609966105126	2189.77866478781	1294.94634885854	139.023779221956	2383.94457082526	772.182380793437	149.450782936263	1087.40877191295	658.346302713649	128	1494.79439396948	976.097209235403	138.062484149013	1935.66899763139	362.258336669149	127.281237201061	958.35171381816	686.862545894757	180.225246376831	1131.97568910077
289.692717650669	141	573.909325395479	1394.60103885039	236.80071782281	1968.92542146964	663.146057845997	141.313803998853	1258.57989401687	1006.17725406865	161.31925445508	1401.17583056796	1036.65501226068	130.15462082999	2308.29550750353	990.01242026174	150	1426.67710169923	629.946298777539	128	1121.7300788711	1103.85753757389	172.922443019025	1510.91428462234	856.078616309362	141.197361077	1523.35410177081	1496.81467648427	187.624510018283	2191.142360617	1295.54766886746	139.04072345119	2386.03678199705	772.584427928197	149.488160640423	1088.64331247967	658.586557443376	128	1497.03568003213	976.469060325771	138.04072345119	1938.29885316382	362.360650461681	127.214712391071	959.447701044445	687.091465634857	180.235785415856	1133.71111247517
289.749491385479	141	573.989173606683	1395.08418051355	236.870319398524	1969.69766669849	663.398779387787	141.29991573803	1258.99281270913	1006.39443353746	161.304827848141	1401.57962600339	1037.16342506695	130.124861433113	2310.56889428884	990.594731230507	150	1428.74783002839	630.337138704649	128	1122.77393510392	1104.43624038397	172.923747524246	1512.85149817442	856.423155821396	141.186816525378	1524.2165166741	1497.31369292597	187.655482532234	2192.5308073773	1296.12978372258	139.061156926116	2388.6090416588	772.984860040629	149.548627993617	1090.04551822772	658.917024158769	128	1499.72072105429	976.912814828691	138.023779221956	1941.23129493536	362.463871131053	127.151556599585	960.679708238585	687.391480251964	180.269313675166	1135.7146461552
289.810536639507	141	574.179856123186	1395.70831809961	236.954626296559	1970.79759173977	663.6743552063	141.277639362142	1259.5911075457	1006.6298452446	161.296432004933	1402.14156925998	1037.65723352185	130.094153476796	2312.62504720804	991.09616317582	150	1430.5523751777	630.685076388497	128	1123.78778503729	1104.92689895724	172.911718104898	1514.52910602675	856.620114368354	141.187629798524	1525.19601344029	1497.55104205595	187.694386403563	2193.72806325038	1296.60804161752	139.082403674188	2391.29132316192	773.305996760263	149.625059754879	1091.39763006057	659.281974105269	128	1502.487063034	977.348116361982	138.011749802608	1944.05393871268	362.555194538884	127.098013173577	961.888924465501	687.706121888433	180.315820794673	1137.74148529981
289.874241146504	141	574.455852533315	1396.37532730313	237.031667427899	1972.05642851798	663.95055363563	141.249293063712	1260.27951648472	1006.83598949425	161.286676330094	1402.73565529533	1038.11421304662	130.065807178367	2314.22237649633	991.476391110264	150	1431.83720328527	630.974229871423	128	1124.62385850498	1105.28869055382	172.886369820086	1515.73396233771	856.656384720798	141.199095384734	1526.17247684579	1497.48393847439	187.7309611344	2194.58376736688	1296.91904841859	139.101082211157	2393.70468185241	773.486226170428	149.708656262201	1092.49820706279	659.632409752649	128	1504.97144099834	977.712694399902	138.004650252251	1946.38994556006	362.627753534196	127.057123506049	962.926835333426	687.987893974501	180.363190442512	1139.55139792117
289.937515850987	141	574.784459662857	1396.98031950467	237.082676701334	1973.31109481555	664.205997897776	141.2184322019	1260.96804175059	1006.97139590291	161.269845431688	1403.25280638072	1038.51719092027	130.042050674087	2315.23096098198	991.719933402113	150	1432.4605094786	631.19577995499	128	1125.18858458623	1105.50476501608	172.851789147445	1516.36115513104	856.546696703559	141.218678582995	1527.03105172558	1497.13150116075	187.755080479088	2195.01734330187	1297.03819308693	139.115224601697	2395.50913648457	773.493345411032	149.790609503653	1093.18949603938	659.929973843049	128	1506.85633385362	977.96514358581	138.001327222897	1947.94064576237	362.680231595168	127.029756697104	963.673495984015	688.199010808765	180.399792698199	1140.94074111425
289.99665425297	141	575.12581847096	1397.4168172324	237.093091552901	1974.40729355798	664.416962402096	141.18761264307	1261.57172600453	1006.99538640554	161.243321150786	1403.59486738414	1038.85052299412	130.023779221956	2315.63711861527	991.825664741604	150	1432.40071093791	631.343606647899	128	1125.45335198727	1105.57568518383	172.815186891758	1516.41878193867	856.336041073623	141.243246681733	1527.67148046915	1496.5698611582	187.760710220824	2195.01254035781	1296.98991231463	139.123109969924	2396.44833924232	773.333633930739	149.86259059813	1093.37371686068	660.152444961205	128	1507.91684314205	978.093460623745	138	1948.52583952768	362.716906657237	127.013077025505	964.054858542373	688.320578397848	180.415842981819	1141.76935244566
290.046874649624	141	575.433945700621	1397.59682012063	237.058148157316	1975.21071803478	664.55894178773	141.161176205973	1262.00975640484	1006.87000668906	161.208050855597	1403.67375447237	1039.09635622138	130.011749802608	2315.5098606706	991.799770772321	150	1431.73675552356	631.412856324221	128	1125.44124965866	1105.50975425742	172.785020410043	1516.00248397003	856.086452167042	141.269301257313	1528.01757832638	1495.91323718368	187.746563023109	2194.59748337823	1296.84092611377	139.125647181409	2396.38310870412	773.046869605237	149.917770049098	1093.02190205592	660.292539033493	128	1508.04666600212	978.108529036516	138	1948.09506182293	362.743513910331	127.005977475148	964.047706802197	688.35089892809	180.408738624287	1141.97787363451
290.084682156298	141	575.666609229651	1397.46495630394	236.981212698234	1975.62601446372	664.610541913705	141.141261487972	1262.21401594488	1006.5676487404	161.166889389524	1403.42084355035	1039.23962811917	130.004650252251	2314.9601969818	991.65173958043	150	1430.61258558403	631.401866852459	128	1125.2089349359	1105.32203864899	172.767642903526	1515.25623679253	855.866046690207	141.295794404584	1528.01821362731	1495.28447188123	187.718500941078	2193.81752803608	1296.68207185844	139.124861433113	2395.29781649635	772.695187980253	149.953843248038	1092.16871740749	660.356888821091	128	1507.26635599334	978.041633052213	138	1946.72112701273	362.768620355184	127.007304698044	963.675448061245	688.305833624538	180.380140233968	1141.59008045957
290.106592680756	141	575.790301528497	1397.00823165409	236.871439573849	1975.60628896564	664.553921529925	141.129104600526	1262.13495007578	1006.07240190382	161.124454348275	1402.79339321106	1039.27166354571	130.001327222897	2314.11414245175	991.395380989781	150	1429.20833520123	631.313353279277	128	1124.83675297683	1105.03219054727	172.767642903526	1514.34345685242	855.73908474723	141.323287875148	1527.66973451414	1494.79833489089	187.686216680996	2192.73640083913	1296.61619521419	139.123127125378	2393.31636389502	772.354199536844	149.970522919636	1090.90899268406	660.361510945068	128	1505.71210101849	977.932844929518	138	1944.57934025499	362.797809385242	127.017727277756	963.000811489964	688.21110478618	180.33756254096	1140.70357218343
290.112482242525	141	575.78767313245	1396.27039986331	236.742186687434	1975.15212610373	664.385368949729	141.123641075129	1261.7443054852	1005.39584468718	161.084936148072	1401.7795996172	1039.19694058107	130	2313.07028293063	991.051238305752	150	1427.69229210243	631.155616984948	128	1124.40135639035	1104.66399852143	172.785020410043	1513.4022531731	855.746777167476	141.351173441018	1527.01444408432	1494.52843678246	187.660583217222	2191.4216469528	1296.72489778414	139.122313852233	2390.67973545726	772.09134291185	149.970243302896	1089.38156471465	660.329042292107	128	1503.61190829232	977.826147283733	138	1941.92310199714	362.835368274795	127.041506499712	962.116245571561	688.101511826102	180.293248861531	1139.47495744728
290.103474799089	141	575.659890430204	1395.34056919171	236.609437186321	1974.3160909492	664.115394376641	141.124454348275	1261.04357287523	1004.57546906189	161.053800476695	1400.40888741338	1039.03475821962	130.001327222897	2311.88927764389	990.646814361849	150	1426.19546634602	630.943441667419	128	1123.96520595923	1104.24569674462	172.816514114655	1512.52826601113	855.906253914848	141.379519739448	1526.14633180386	1494.50540541719	187.652418301829	2189.95076404056	1297.0571550036	139.123127125378	2387.71431271931	771.956095440528	149.957949325913	1087.74949778931	660.282190360158	128	1501.2369213988	977.755251572194	138	1939.03107888988	362.88197355961	127.080902728005	961.122373969408	688.008936089208	180.259414452039	1138.0872786957
290.083280464348	141	575.429449883908	1394.34807215123	236.485078479568	1973.20364915127	663.773436067826	141.129511685363	1260.07257187567	1003.67661563472	161.033079726457	1398.75716980994	1038.82091593735	130.004650252251	2310.60088942218	990.221269684179	150	1424.79905307252	630.696818546215	128	1123.57183249899	1103.81032514695	172.856439399695	1511.76924400694	856.200089874705	141.407425857071	1525.19682007771	1494.70733719523	187.66656069237	2188.40960386781	1297.6089306959	139.124861433113	2384.77151195647	771.966771974243	149.938843073884	1086.17415414784	660.239178107089	128	1498.87084023222	977.741307414766	138	1936.18855666086	362.934540555045	127.13740940187	960.123751457366	687.958417200944	180.246594477221	1136.72967405014
290.059407500754	141	575.140236163687	1393.44328924161	236.379867206822	1971.97349874246	663.408059967487	141.137396984017	1258.91818030202	1002.79155891307	161.024826828113	1396.95735450966	1038.59985201362	130.011749802608	2309.23310714169	989.823306324418	150	1423.55298191835	630.436319474378	128	1123.25245962138	1103.39490462929	172.898119622694	1511.14488411556	856.582861549951	141.431286264869	1524.30961618078	1495.07525420574	187.702616735854	2186.88999287767	1298.33023546031	139.125647181409	2382.16416381608	772.113480252546	149.917596325812	1084.79049768418	660.212190031175	128	1496.75398569044	977.787757893671	138	1933.63583859184	362.988250197392	127.208063273451	959.208829539358	687.96219726629	180.261319575771	1135.56335286812
290.041506499712	140.998672777103	574.848229322519	1392.77238830721	236.300030065049	1970.8217716867	663.07786701471	141.14688919188	1257.70745588447	1002.02368921886	161.029756697104	1395.18787054598	1038.4232631416	130.023779221956	2307.85159361744	989.512837031406	150	1422.50551266628	630.183680129785	128	1123.03765261626	1103.04167237159	172.935497326854	1510.67611311463	856.994998707188	141.448917901102	1523.62222177542	1495.53927939837	187.756684411436	2185.49496621546	1299.14580814712	139.124437192821	2380.13197791834	772.369047238699	149.898917788843	1083.70024415468	660.20201132925	128.001327222897	1495.06255636285	977.884570691805	138.001327222897	1931.5522683804	363.037029970748	127.286693485548	958.446467138452	688.019325647882	180.305895113062	1134.704763656
290.040549727903	140.995349747749	574.618576133032	1392.44984061689	236.24747850829	1969.96678936887	662.842484212149	141.155948052887	1256.60052779352	1001.46861276736	161.048028149234	1393.65816292239	1038.34369860933	130.04072345119	2306.58847012632	989.356446118711	150	1421.73059629074	629.960465134325	128	1122.97207238398	1102.79930627618	172.964470975436	1510.4100781657	857.372784997733	141.458676704427	1523.2442747777	1496.0354250617	187.821693423653	2184.34129106388	1299.97494819794	139.121202076845	2378.82790944804	772.700650886277	149.887429844096	1082.97314091573	660.208250800201	128.004650252251	1493.9020752571	978.019783502005	138.005977475148	1930.06036782175	363.077302989201	127.364517665409	957.886923979891	688.122355180547	180.376093744731	1134.22440248396
290.066083887817	140.988250197392	574.507364199253	1392.53449795479	236.222800137637	1969.60286929771	662.745711375463	141.162239137273	1255.75642214635	1001.19052080572	161.077556980975	1392.56471035627	1038.40272498487	130.061156926116	2305.62447918224	989.409893324918	150	1421.32561278495	629.783345740573	128	1123.10814688466	1102.70850638802	172.983599945141	1510.41739429923	857.665474736587	141.460239233602	1523.24197257527	1496.52422381038	187.890740455597	2183.54247317565	1300.75629177955	139.117482266016	2378.31499999976	773.082149401212	149.886190534578	1082.64476925414	660.229969756904	128.011749802608	1493.30785139789	978.184876558733	138.017727277756	1929.219125163	363.10812505134	127.432243036677	957.559369126659	688.260512202304	180.464125122827	1134.1442776971
290.123642975014	140.976220778044	574.554637134329	1393.01830348434	236.224041125844	1969.87280302242	662.805782588766	141.164807348377	1255.30372817746	1001.20656168651	161.117932698753	1392.05359869588	1038.62433327057	130.082403674188	2305.15582991318	989.702491809107	150	1421.38740138823	629.663022887623	128	1123.49744432895	1102.79260045539	172.994022524852	1510.7736702201	857.843926382021	141.456553363839	1523.64050092775	1496.99082224282	187.95927654881	2183.20571488581	1301.45808211676	139.11925992165	2378.60078966581	773.497345111197	149.897852423808	1082.73140755739	660.271596879713	128.023779221956	1493.26941538955	978.382669923341	138.040179276815	1929.04917873914	363.131536743178	127.482865710995	957.480522794888	688.428217350068	180.560557081733	1134.45441643911
290.213063296941	140.95927654881	574.772436631371	1393.82707268084	236.250446563322	1970.82511863401	663.009980692365	141.162239137273	1255.30948440132	1001.47984399146	161.1669121072	1392.18246733147	1039.00957740632	130.101082211157	2305.33404791493	990.222898406168	150	1421.96828625076	629.600468893624	128	1124.17127771956	1103.04641464724	172.998672777103	1511.52550706064	857.899907834852	141.450977339399	1524.41844979018	1497.43588490893	188.024323396331	2183.39605074352	1302.0727676869	139.130309851513	2379.63312868548	773.934683576574	149.922697010799	1083.21597518731	660.34573881801	128.04072345119	1493.7382413441	978.624961123136	138.076252475754	1929.52341285015	363.154076655615	127.511839359577	957.651358794238	688.62733885948	180.655749731121	1135.11469155035
290.32819998526	140.938843073884	575.149233818083	1394.83877406531	236.299334929905	1972.41593999871	663.320336564498	141.15462082999	1255.77369268885	1001.93190329482	161.220428008357	1392.91676579794	1039.53287840474	130.1138973788	2306.21286807491	990.914782736163	150	1423.04006462399	629.587863877306	128	1125.12384533299	1103.43172278073	173	1512.65974546982	857.840665897387	141.448497041673	1525.51148111656	1497.85808377056	188.08415309955	2184.11284642943	1302.60258827362	139.154353631104	2381.29923886343	774.379048183033	149.958319777002	1084.04117430995	660.471687799984	128.061156926116	1494.64570570775	978.929616525385	138.126986822159	1930.57602095748	363.183312162058	127.519050582022	958.058673041675	688.866708274022	180.742715744182	1136.06719329053
290.45814764768	140.917596325812	575.648956448358	1395.91399929159	236.368029490835	1974.50700368746	663.685858380822	141.142238939629	1256.62554676675	1002.46660055396	161.273770120586	1394.13527173006	1040.15300373581	130.118459717673	2307.70844879038	991.693934332634	150	1424.47606635902	629.610513561946	128	1126.29895208718	1103.88941849977	173	1514.08594545349	857.68263651412	141.452519943772	1526.81880101048	1498.24651271554	188.137583125157	2185.27234543529	1303.04924904168	139.191119044217	2383.41888680692	774.805428965134	150	1085.10187664011	660.666990732097	128.082403674188	1495.89796659927	979.304841085852	138.188934303745	1932.08521131328	363.225790551206	127.506751042817	958.666543981664	689.154080603958	180.816687837942	1137.23024457003
290.590723563449	140.898917788843	576.220697862176	1396.9270414636	236.453847166669	1976.8931809174	664.0572013705	141.126974404306	1257.74716952789	1002.99470846597	161.322489708999	1395.66261300584	1040.82210840162	130.1138973788	2309.62211853083	992.468303162888	150	1426.07879909017	629.651499201264	128	1127.60123305891	1104.35334970842	173	1515.65586120547	857.44606487822	141.464707830836	1528.21596572851	1498.57851910452	188.182158662448	2186.71644881611	1303.40459663774	139.235959139143	2385.749671763	775.180206722286	150.041680222999	1086.249583395	660.9441247962	128.101082211157	1497.38371682595	979.74607333622	138.256392614069	1933.88305042434	363.286947477323	127.480601950604	959.421255619129	689.492200778181	180.8760898261	1138.50616594986
290.713052522677	140.8861026212	576.809355654041	1397.78624376352	236.552480079718	1979.33887296976	664.396000428104	141.110382715658	1258.99632460156	1003.45020674107	161.362762727451	1397.3070170042	1041.49501506443	130.101082211157	2311.68293263081	993.162563807552	150	1427.62796498808	629.69823368249	128	1128.91524175539	1104.76999678748	173	1517.19560873501	857.150416676857	141.484013648384	1529.5648248948	1498.8271718636	188.214979589957	2188.2316883104	1303.65604886207	139.280786768324	2388.00002107303	775.470015385215	150.077302989201	1087.31160468765	661.301640097981	128.1138973788	1498.96399435739	980.229593990586	138.321162486102	1935.75606355302	363.367596213553	127.446822085364	960.244695922282	689.871053800324	180.921115796128	1139.77739093845
290.815889671792	140.881540282327	577.358859791841	1398.45082827547	236.660688033678	1981.60927592083	664.683299438285	141.095480699693	1260.22647399789	1003.80220007813	161.393644974534	1398.88589291153	1042.13637634316	130.082403674188	2313.60882810623	993.731272349331	150	1428.93437792514	629.743045281106	128	1130.12682248181	1105.10732119832	173	1518.54463119262	856.818170449695	141.50579983323	1530.74133894875	1498.97703753925	188.232357096474	2189.60304373426	1303.79686123893	139.316087993559	2389.88872989474	775.653935805242	150.102147576192	1088.13061773937	661.722534834719	128.118459717673	1500.48868611252	980.715399911618	138.37416275882	1937.47900249792	363.46454936312	127.410489949534	961.049436116461	690.268063225188	180.953299073663	1140.92252357098
290.892663604245	140.8861026212	577.819358928408	1398.92850834954	236.774463440568	1983.49643893015	664.916631271207	141.084936148072	1261.30441681723	1004.04928743466	161.416096973593	1400.24532718974	1042.71973477041	130.061156926116	2315.1682987116	994.159871575247	150.001327222897	1429.88017722188	629.78103188572	128	1131.14469424515	1105.35539267937	173	1519.59398359141	856.473446985561	141.524151267009	1531.6489338411	1499.03332220613	188.232357096474	2190.65335918881	1303.83411514931	139.33343930763	2391.18701002919	775.732094500772	150.113809465422	1088.59382913976	662.175657692775	128.1138973788	1501.8046840547	981.15861188374	138.40741140139	1938.84774732752	363.570979661445	127.374416750595	961.746695264704	690.653972405753	180.976220778044	1141.82769750637
290.940766222532	140.898917788843	578.151523082929	1399.2590787553	236.888530929944	1984.85455618391	665.105221618311	141.08144690238	1262.12306489924	1004.21156716293	161.433037728058	1401.27468191618	1043.22369665842	130.04072345119	2316.20707827232	994.455256882156	150.004650252251	1430.42602339704	629.810166188419	128	1131.90785111714	1105.52462618168	173	1520.29475062621	856.138890340321	141.532529130143	1532.22688674171	1499.02340850393	188.214979589957	2191.27453416883	1303.79064587046	139.328876968758	2391.75635988481	775.727150222283	150.112570155904	1088.65871967804	662.618964571849	128.101082211157	1502.76934460971	981.515035925531	138.415842981819	1939.7048277181	363.677777489888	127.338889763857	962.257976132168	690.99452531149	180.992900449642	1142.40237274636
290.959895192238	140.917596325812	578.328393892777	1399.50111808252	236.994096993905	1985.62535329942	665.260322890984	141.084936148072	1262.61133586208	1004.31703842367	161.448149308261	1401.91483280238	1043.62923000608	130.025106444853	2316.66951164398	994.634147120731	150.013077025505	1430.60425249035	629.826435566449	128	1132.39145371243	1105.63763504599	173.001327222897	1520.66398420425	855.837416495014	141.527570075828	1532.45364777992	1498.99707636277	188.184813108242	2191.4439392723	1303.70802412663	139.301945603018	2391.5758411558	775.682818427542	150.101082211157	1088.36106004056	663.007228677176	128.082403674188	1503.27002022932	981.756459215248	138.399792698199	1939.97239214743	363.775536671691	127.302295374257	962.529541853519	691.264640467126	181.007099550357	1142.59665205132
290.951188802244	140.938843073884	578.334145936297	1399.71135030219	237.075694901896	1985.84015884501	665.387121164406	141.094153476797	1262.73058070288	1004.39190099925	161.464031647228	1402.15173943191	1043.92041771383	130.017727277756	2316.59357651277	994.711321349324	150.029756697104	1430.49381224621	629.825147091793	128	1132.60494151306	1105.72501215827	173.005977475148	1520.77481391391	855.589848729085	141.506756605039	1532.34506461565	1499.02272478284	188.149538075452	2191.22629878596	1303.64556377319	139.257457979105	2390.75064509911	775.65787048727	150.082403674188	1087.80953960943	663.298827848224	128.061156926116	1503.23523473367	981.873519058502	138.363190442512	1939.66003429347	363.855285900085	127.263435454253	962.538900009977	691.448975248911	181.021124776162	1142.40766320961
290.915115603304	140.95927654881	578.157088613692	1399.96726062149	237.111491391384	1985.67635700554	665.483816970207	141.105732463407	1262.48172158147	1004.46475942081	161.482798097574	1402.03562399353	1044.0862317542	130.021050307109	2316.07784213457	994.690008713438	150.058450728946	1430.16934422268	629.802848753277	128	1132.57825216597	1105.82429709043	173.017727277756	1520.7273276347	855.411701963491	141.472961680693	1531.94317716231	1499.16877044281	188.119607655062	2190.7547407419	1303.66607558258	139.202962588463	2389.49880500741	775.70955202657	150.061156926116	1087.16350961641	663.462282481295	128.042050674087	1502.64670725426	981.879744354393	138.315820794673	1938.86461939258	363.911792573951	127.222994540773	962.298462533331	691.548293997588	181.034745976042	1141.88396505293
290.847981202041	140.976220778044	577.785553663492	1400.38263939147	237.077745722618	1985.45034081683	665.539557504014	141.116551824594	1261.89801917717	1004.56829302416	161.507129093954	1401.67128822825	1044.12310285589	130.036856247461	2315.25713941429	994.559162686146	150.102663425828	1429.68003428662	629.759730731339	128	1132.35874201351	1105.97532734585	173.041506499712	1520.62921257395	855.313203759449	141.431021707234	1531.31136479893	1499.49560743111	188.106009172858	2190.20463165711	1303.83056010278	139.146906347334	2388.12052624352	775.885223704111	150.04072345119	1086.60307801979	663.478282135377	128.028429474207	1501.54537142111	981.802126040078	138.269313675166	1937.75563252544	363.939438999636	127.183050304197	961.854564059075	691.572468285143	181.043429648361	1141.11650227827
290.74585444364	140.988250197392	577.203814206893	1401.12669127035	236.950575528666	1985.60582297012	665.545424348108	141.123109969924	1261.04495766092	1004.75029754089	161.538252209535	1401.218105056	1044.03776491916	130.064502673146	2314.27327811966	994.299142597787	150.16463362509	1429.0305324023	629.701899627451	128	1132.00137534517	1106.21575589229	173.082229950902	1520.57067456332	855.294803479776	141.388039988302	1530.52363324787	1500.03574717131	188.119086198363	2189.75863998904	1304.18062257666	139.098013173577	2386.95827563745	776.207919635088	150.025106444853	1086.29836158163	663.342474232119	128.023499605216	1500.02817110497	981.676214452657	138.235785415856	1936.54150613878	363.936115970282	127.148361038329	961.279769331779	691.538022002265	181.040897174477	1140.22232035242
290.600816434664	140.995349747749	576.395100954088	1402.4231852328	236.714202383019	1986.66330208878	665.495404169188	141.125647181409	1260.01384570038	1005.07301468471	161.578948135875	1400.87715502067	1043.84399634006	130.101880377306	2313.24413122911	993.885753938495	150.244469088175	1428.18073134808	629.639581556834	128	1131.56028378136	1106.57279481532	173.143386877018	1520.6071136925	855.344581705688	141.35195648954	1529.65791504914	1500.77821514789	188.165764407024	2189.56793402117	1304.72336831271	139.063100981196	2386.34085171374	776.668463650502	150.016400054859	1086.37761547798	663.061908357866	128.028429474207	1498.23496300725	981.53340366523	138.225246376831	1935.42654224694	363.900042771343	127.1239101739	960.657861913055	691.459074338124	181.018852260255	1139.32056211939
290.405736711119	140.998672777103	575.347434895528	1404.50422531677	236.36402084934	1989.08911892542	665.392583149056	141.124861433113	1258.90405323381	1005.60034859275	161.631037230027	1400.84298511783	1043.56224167548	130.143560600305	2312.24630206821	993.304509351066	150.339687930007	1427.06573880488	629.585616912259	128	1131.08432383164	1107.05650289439	173.225790551206	1520.74722678518	855.433012706517	141.331115929776	1528.78474945428	1501.65989113646	188.248168081213	2189.71325120336	1305.42328432019	139.046156751962	2386.51640507705	777.223824450567	150.016400054859	1086.90018660228	662.653635020544	128.043377896984	1496.33278802491	981.3921560104	138.243517828962	1934.57145377837	363.830179455232	127.113835327601	960.07103649709	691.342849952371	180.970510501783	1138.51317634313
290.156702584298	141	574.067521999443	1407.53303724593	235.905719403174	1993.15187205245	665.244806867194	141.123127125378	1257.80801237887	1006.3756326255	161.694736174802	1401.26131617447	1043.21249227876	130.183485885345	2311.30970795294	992.556827246918	150.445332480036	1425.62781576541	629.548435263784	128	1130.61142804766	1107.64980789565	173.326872762363	1520.9540725331	855.519019157621	141.330732459144	1527.95376866004	1502.57287244189	188.363729009824	2190.17298647675	1306.20469851987	139.048606050069	2387.59532164442	777.804456178196	150.025106444853	1087.83877608522	662.138475114975	128.065807178367	1494.48071647265	981.249370772979	138.291170014512	1934.04982632103	363.726181299559	127.119607655062	959.583847097837	691.183566501902	180.89134194357	1137.86090461436
289.855031908311	141	572.588576008771	1411.51173032076	235.354895648374	1998.79623216995	665.056367640135	141.122313852232	1256.79002938732	1007.39239560245	161.770069483957	1402.18080092018	1042.80780692977	130.214979589957	2310.41397380616	991.662859655868	150.554667519964	1423.83711605502	629.527834634364	128	1130.16289362616	1108.30328283499	173.440770141163	1521.14795945653	855.549262260631	141.353456256748	1527.18342325198	1503.37065792482	188.503945591413	2190.8081256929	1306.95880431102	139.070480148294	2389.50795196262	778.326229120582	150.04072345119	1089.07694867502	661.533098618164	128.094153476796	1492.79181693775	981.080051655472	138.36479437486	1933.81565166705	363.586938335721	127.141711920709	959.224666175691	690.963433761763	180.78104714129	1137.36415411507
289.508493612547	141	570.971787917057	1416.22758643768	234.730591601566	2005.57064727128	664.823391663021	141.123127125378	1255.86807489438	1008.57886311442	161.854347058726	1403.52181429069	1042.35139155199	130.232357096474	2309.49579769174	990.659156162442	150.660312069993	1421.70357441035	629.512083504302	128	1129.74035916545	1108.94027327068	173.55790263594	1521.21854242977	855.468439760366	141.398457830412	1526.4525158031	1503.8937382677	188.655132760995	2191.37689387721	1307.55973570728	139.107857852454	2392.00155579348	778.704850339651	150.061156926116	1090.42569124785	660.847065437058	128.124861433113	1491.30180760315	980.836984791323	138.455755059747	1933.70225968964	363.410287709136	127.177334686911	958.979799808106	690.653059548059	180.642584792237	1136.95851149451
289.12994766242	141	569.299564772651	1421.24314487599	234.052474309995	2012.65168640743	664.528302521832	141.124861433113	1255.0050777785	1009.79607003102	161.941919722143	1405.07356519317	1041.83317168005	130.232357096474	2308.44734337276	989.586877908198	150.755530911825	1419.27049668076	629.474958543347	128	1129.31664358692	1109.45901297647	173.667149762489	1521.03168965844	855.221228916444	141.459562783955	1525.69210436574	1503.98619380525	188.798960560186	2191.55266793192	1307.88090079948	139.155310402913	2394.65479764425	778.867521367695	150.082403674188	1091.64252337413	660.078216014123	128.15462082999	1489.94834056178	980.457713598571	138.554667519964	1933.43613196257	363.19224672649	127.221755231254	958.788495482157	690.217125113608	180.48166731564	1136.51833864539
288.736564545747	140.998672777103	567.666857656936	1425.95174292694	233.33693463396	2018.97321050203	664.143579728338	141.125647181409	1254.11925088364	1010.85874117416	162.025516229465	1406.5320514753	1041.23407114909	130.214979589957	2307.12898637652	988.489359035778	150.83536637491	1416.59939728094	629.380977496427	128	1128.83597130754	1109.74843975739	173.756482171038	1520.44300382553	854.763077112906	141.527285721487	1524.79903668937	1503.52348127672	188.916188834427	2190.98775749268	1307.81523945061	139.207265107301	2396.95141922493	778.764828102521	150.101082211157	1092.48029156322	659.214806902067	128.179616643789	1488.5771437334	979.878245836288	138.648562267385	1932.68630338659	362.928124778175	127.267997793125	958.553304395467	689.622545119807	180.305799737577	1135.87967229137
288.347416868343	140.995349747749	566.161784367814	1429.67779149456	232.597854113425	2023.40052772029	663.638688218738	141.123109969924	1253.09543991319	1011.56885364276	162.096328568762	1407.5473013324	1040.53345680839	130.184813108242	2305.38388529514	987.404249219431	150.897336574172	1413.75552519791	629.189991261333	128	1128.21851142534	1109.70732084783	173.81510662327	1519.31128225094	854.063854523467	141.593024713609	1523.64591545587	1502.43050410817	188.989362762038	2189.36512090189	1307.29192502043	139.255703041147	2398.35387070422	778.37763098684	150.1138973788	1092.72111667513	658.243951317854	128.196301052989	1486.9726161059	979.048755781507	138.725774214722	1931.13038078179	362.615744177592	127.309133066754	958.159373482392	688.848536662842	180.124454348275	1134.87284475144
287.980194046797	140.988250197392	564.854253145956	1431.81612686708	231.847568461348	2024.95328361349	662.991181631112	141.115224601697	1251.81776032958	1011.7596992086	162.145826664561	1407.79728620084	1039.71763782888	130.148210852555	2303.07537702073	986.362652674047	150.940222048158	1410.80467208802	628.868204332369	128	1127.37736708052	1109.26163846669	173.835540098197	1517.52665353949	853.1146972649	141.647235044488	1522.11512760742	1500.69871079912	189.006740268554	2186.47399403992	1306.29139306571	139.29351402259	2398.40991113236	777.719521770875	150.118459717673	1092.22026342634	657.160136792218	128.202164422313	1484.90770418629	977.947538727813	138.776915645964	1928.52321338048	362.257186831876	127.33984102307	957.497299679087	687.894218715574	179.947353022915	1133.36088122509
287.650340160233	140.976220778044	563.783455405871	1431.96235161785	231.10224229946	2023.00099124815	662.19980456109	141.101082211157	1250.19951651344	1011.33769878518	162.167700762785	1407.05664841747	1038.79229813528	130.113630179914	2300.1259126078	985.395369171278	150.964265827749	1407.82031027304	628.395545957551	128	1126.24150935512	1108.38294421702	173.81510662327	1515.03714878331	851.934374434075	141.68542121462	1520.1295795263	1498.39895972425	188.965060045555	2182.26423120549	1304.85763278714	139.314760770662	2396.8360966472	776.836891961723	150.1138973788	1090.93512027959	655.974346838793	128.196301052989	1482.20995976979	976.592225790491	138.794673148344	1924.76917021466	361.86205468575	127.355484221852	956.493398261966	686.782946930168	179.784834268903	1131.27775262909
287.369532761685	140.95927654881	562.957204233206	1430.00678054093	230.385895047274	2017.38840812396	661.290822211507	141.082403674188	1248.21319995565	1010.30602233307	162.160684115047	1405.24570728796	1037.78816828624	130.088281895102	2296.56305765874	984.536865382051	150.970522919636	1404.89946899081	627.774845178083	128	1124.7827578624	1107.10057550068	173.756482171038	1511.88077452998	850.570119785576	141.705590131911	1517.68746387399	1495.67427845262	188.870379549838	2176.89001611135	1303.09126172694	139.316061801114	2393.58842278879	775.802755106106	150.101082211157	1088.93849119451	654.722419722345	128.179616643789	1478.81563295145	975.044767204318	138.778242868861	1919.95930716196	361.447946011666	127.354670948706	955.131440483212	685.565763089988	179.646893110511	1128.65552889162
287.146136698296	140.938843073884	562.356146208233	1426.16146407724	229.72995566125	2008.46504039362	660.316811690656	141.061156926116	1245.90271142058	1008.76661675857	162.128353378579	1402.44738207116	1036.758055693	130.076252475754	2292.53826818392	983.825098584629	150.958493500288	1402.17025056186	627.033448256861	128	1123.03322225419	1105.49842540871	173.667149762489	1508.1989168899	849.095766144693	141.70892562701	1514.87392786809	1492.73005769461	188.736738269034	2170.69955440733	1301.14099542195	139.297383264146	2388.86972830742	774.709703871065	150.082403674188	1086.40838606968	653.463810061484	128.155948052887	1474.80205563198	973.405544698683	138.731751689869	1914.37726408373	361.038800302541	127.338106715335	953.460541524543	684.31566811576	179.542054592718	1125.6265607126
286.984388793098	140.917596325812	561.945025793722	1420.92114101038	229.172039112776	1997.01781379852	659.351885752417	141.04072345119	1243.384513841	1006.90349291943	162.079321513333	1398.8949887287	1035.77184657692	130.077556980975	2288.3183176923	983.302424536917	150.929519851706	1399.79054160993	626.219986799345	128	1121.08772052452	1103.70650630439	173.55790263594	1504.22998445687	847.606920160379	141.698635205106	1511.86880177319	1489.80615101668	188.583003518571	2164.21070384584	1299.18116019745	139.262020317978	2383.11845103398	773.655270674368	150.061156926116	1083.60828007282	652.279439041953	128.129511685363	1470.39202041469	971.801204576662	138.664962322244	1908.45972171907	360.662631437442	127.308347318458	951.592597818384	683.118726271853	179.476237114528	1122.4115566381
286.884903169647	140.898917788843	561.688589291313	1414.95959714321	228.749221997601	1984.11184924599	658.478295704164	141.023779221956	1240.83000483844	1004.9439023614	162.023779221956	1394.92303253558	1034.90570650331	130.088381149336	2284.23864200434	983.011826292056	150.886369820086	1397.92298544007	625.399084311102	128	1119.08850638316	1101.88151073377	173.440770141163	1500.27647091053	846.209885456331	141.677706731964	1508.91701255231	1487.14835297305	188.428753139669	2158.02055329974	1297.38713191956	139.215777756107	2376.92449282497	772.731780892873	150.04072345119	1080.83966923072	651.261481975881	128.105903279405	1465.92698799192	970.368973325589	138.590196544528	1902.73788228282	360.346136359045	127.269207781713	949.686764059736	682.066214863527	179.45290832531	1119.28747732947
286.847538021283	140.884775398303	561.561929835742	1408.9876931656	228.486689459919	1970.89395908675	657.769264490486	141.011749802608	1238.43250515029	1003.11045879452	161.971824517568	1390.89977248945	1034.22120901678	130.10373665695	2280.62997300732	982.977813180533	150.832660177739	1396.6951179536	624.637011063638	128.001327222897	1117.19467626637	1100.17984858774	173.32819998526	1496.6498132687	845.006772099471	141.648033210638	1506.28467554787	1484.96876007994	188.290293224352	2152.70448209072	1295.90276190232	139.165584884303	2370.91799465274	772.010584944711	150.023779221956	1078.38712928487	650.502603338161	128.089586400323	1461.80311171462	969.238405090502	138.52158495579	1897.73616499244	360.112457601896	127.22499034723	947.915888316498	681.241358231443	179.470259639381	1116.5406938348
286.870254577978	140.876890030076	561.560222665774	1403.63334979476	228.395439509785	1958.41746503782	657.27913677713	141.004650252251	1236.37949260102	1001.5867079283	161.93147632464	1387.1745443427	1033.76026419784	130.118547631051	2277.75256897881	983.206812228683	150.775790663465	1396.16382421755	623.995490129319	128.004650252251	1115.55154925556	1098.74038583421	173.231768026354	1493.61844037792	844.084598282948	141.61117419383	1504.20438429761	1483.42333327759	188.178915901582	2148.70292754237	1294.82441568841	139.117932698753	2365.63923630101	771.532432292213	150.011749802608	1076.46194945459	650.078723038917	128.082774125277	1458.39811258638	968.509246244342	138.471325004417	1893.88774800388	359.97651774261	127.18105449774	946.436415808351	680.710089785068	179.524327314962	1114.4181856977
286.950784817067	140.874352818591	561.697773632284	1399.33314760126	228.463561870045	1947.49989582675	657.031862445066	141.002654445794	1234.82584262231	1000.4878153597	161.90664672718	1384.02852467266	1033.53898259594	130.131536743178	2275.75619396489	983.682716919527	150.723863483927	1396.30468171296	623.522992325689	128.011749802608	1114.26761552578	1097.66823647149	173.161114154774	1491.36906188436	843.504271034857	141.566334216368	1502.82681067811	1482.59407616228	188.09863000576	2146.24545102954	1294.19198868284	139.077556980975	2361.43558798996	771.308966649876	150.004650252251	1075.16182799604	650.033690075314	128.084936148072	1455.98978537017	968.234963444159	138.446480417425	1891.4490546509	359.942710469984	127.141261487972	945.352418318854	680.507611435106	179.606713833696	1113.07682717947
287.083811165573	140.875138566887	561.994956842755	1396.31364858569	228.661066322028	1938.68928651795	657.021654802102	141.004650252251	1233.87660086983	999.855893708884	161.899179646705	1381.66056497365	1033.55320243958	130.142326853007	2274.66556226583	984.372020877726	150.685239229338	1397.01165208649	623.253613124554	128.023779221956	1113.40258898828	1097.03496648962	173.123736450614	1489.98693181014	843.292433426803	141.515271291671	1502.1923927092	1482.48134011077	188.048811197756	2145.31778942359	1293.98816836368	139.048028149234	2358.41698734476	771.32198661414	150.001327222897	1074.46149411908	650.368997859246	128.094153476796	1454.70624476804	968.415356851606	138.450782936263	1890.46884713687	360.005461817884	127.110553531655	944.699388261634	680.636729242743	179.708581793148	1112.56120007247
287.260891860709	140.876872874622	562.468104398551	1394.60605680436	228.948061602384	1932.2510731537	657.213867217683	141.011749802608	1233.5774320626	999.668667387752	161.908218293345	1380.1752244427	1033.7818561517	130.153555464955	2274.39179430978	985.229119425276	150.66656069237	1398.12812379734	623.203581302776	128.04072345119	1112.96630437944	1096.86821242316	173.122409227717	1489.4549862978	843.442850926547	141.45902443784	1502.23304543545	1483.01727503765	188.023704752903	2145.68733185624	1294.1594585322	139.029756697104	2356.47092759305	771.537254658384	150	1074.23727733838	651.041430300078	128.105732463407	1454.49881576158	968.995244959143	138.482276640875	1890.7849207906	360.147441203517	127.09091362322	944.435261702591	681.06635351108	179.821693423653	1112.79428020816
287.470526838267	140.877686147768	563.116037277957	1394.08009775334	229.28129026614	1928.19310697669	657.552534789274	141.023779221956	1233.90784849377	999.848430020708	161.930673351317	1379.57898260819	1034.19699464592	130.167339822261	2274.77848852157	986.210908933889	150.671123031242	1399.4900202843	623.374164503008	128.061156926116	1112.9281336563	1097.15881895555	173.156463902523	1489.67510029908	843.921188205577	141.401640973814	1502.79910399404	1484.08439225517	188.017727277756	2146.97778435523	1294.63535477512	139.023499605216	2355.33931964265	771.915891355464	150	1074.31501390149	651.973171902918	128.115224601697	1455.17587778995	969.880977908343	138.533949690697	1892.08744716072	360.347254485913	127.082774125277	944.461961250232	681.741606116962	179.940170296781	1113.60932989565
287.696738514941	140.876872874622	563.914381327009	1394.51999293519	229.622857996896	1926.32397454991	657.968785259911	141.04072345119	1234.78418585073	1000.28579881586	161.96262229584	1379.78774321082	1034.7623947085	130.184284051494	2275.63592322153	987.270841469503	150.698054396982	1400.9551979327	623.748039211522	128.082403674188	1113.22886226581	1097.8549402185	173.220018223746	1490.49103698253	844.672176502916	141.349849010996	1503.69814961231	1485.53672848398	188.02643366775	2148.75800084445	1295.34426855135	139.028429474207	2354.71067490721	772.421056607363	150	1074.51964713687	653.064853926608	128.118459717673	1456.45831187501	970.96001618381	138.597151471333	1894.0058394576	360.579885636904	127.086263370969	944.656063574452	682.593997572217	180.061156926116	1114.79411994578
287.923747524246	140.875138566887	564.816454101283	1395.68094978932	229.94938572562	1926.29972923422	658.398163344862	141.061156926116	1236.06863750579	1000.86680703039	162	1380.63785650072	1035.4391202272	130.202962588463	2276.79258877622	988.365885130306	150.742542020895	1402.43123653881	624.294109007018	128.101082211157	1113.7973994334	1098.87266478994	173.304420763304	1491.72704965196	845.629851177958	141.30976231679	1504.74090836927	1487.22588211839	188.046700926337	2150.63803416868	1296.22676214966	139.042050674087	2354.30821549288	773.023492770385	150	1074.71801883327	654.214937279552	128.1138973788	1458.04463654609	972.119404828481	138.66163929289	1896.18163199291	360.822144122429	127.098803729047	944.895214532704	683.552535193255	180.184284051495	1116.13792330951
288.137422608982	140.874352818591	565.763271191018	1397.33121668158	230.24947234922	1927.69207584411	658.786240698433	141.082403674188	1237.59514827105	1001.4890949672	162.03737770416	1381.91878554357	1036.18509289655	130.221407497842	2278.12698241624	989.455604946274	150.797037411537	1403.8872926916	624.969958589856	128.1138973788	1114.56595003807	1100.10566146956	173.400046689974	1493.22361457771	846.730233984579	141.288274700219	1505.78220111482	1489.02497095049	188.078884203872	2152.34611788489	1297.24212965035	139.061156926116	2353.96005579238	773.701243057764	150	1074.84448008103	655.337217221316	128.101082211157	1459.67827497354	973.266656825336	138.719024435604	1898.34495029221	361.055446649855	127.117482266015	945.09156918097	684.55652936183	180.309145484607	1117.47407446739
288.327461832483	140.876890030076	566.692768153477	1399.28622542239	230.52491082286	1930.05488145974	659.101249878701	141.101082211157	1239.1924110638	1002.0827758372	162.07065387158	1383.40545685631	1036.95624475911	130.235941983689	2279.58334494432	990.503638984626	150.853093652666	1405.34545770932	625.729163102164	128.118459717673	1115.48092576605	1101.44412783786	173.49807293272	1494.86327228456	847.916872279746	141.286947477323	1506.74206603815	1490.84246927285	188.1239101739	2153.76508182336	1298.3647802513	139.082403674188	2353.62085392384	774.438637814455	150.001327222897	1074.90189793537	656.370085210493	128.082403674188	1461.18805073101	974.34016586492	138.764476442005	1900.34742526763	361.267632129263	127.139003823654	945.200246451435	685.559490202091	180.434792666016	1118.70328478995
288.488487852682	140.884775398303	567.552380311163	1401.42384166434	230.785971669255	1932.99000917572	659.33430799449	141.113897378801	1240.71284627144	1002.61813073451	162.096431958906	1384.90191960891	1037.71396832712	130.24419481246	2281.17951103225	991.483257669841	150.90331404932	1406.87285952481	626.529342341645	128.1138973788	1116.51451846368	1102.79675578228	173.590723563449	1496.59681791421	849.150197810834	141.30511206454	1507.61519592232	1492.63037856638	188.183312162058	2154.94202845694	1299.57846799025	139.101082211157	2353.37150323411	775.223105832969	150.004650252251	1074.95345093105	657.283658584581	128.061156926116	1462.50221014329	975.313340812631	138.796254363015	1902.15833434341	361.451986938681	127.159183168863	945.220947604166	686.532712966517	180.55790263594	1119.79353285668
288.620132793178	140.898917788843	568.307646665353	1403.68425694388	231.048478581971	1936.2052382518	659.500006381191	141.118459717673	1242.06101039556	1003.10674293256	162.112570155904	1386.27717727762	1038.42689714603	130.244648373683	2282.97952356737	992.379863603909	150.942876493951	1408.55784297556	627.337428217231	128.101082211157	1117.66180711606	1104.1028715593	173.674454460534	1498.43587792747	850.40816293285	141.338099208388	1508.46022852007	1494.38448667626	188.257284255818	2156.05048650081	1300.8772988175	139.113897378801	2353.38557899947	776.046106228354	150.011749802608	1075.09968737262	658.079771876478	128.04072345119	1463.6464725323	976.195284198215	138.817465373868	1903.84884443677	361.608624564491	127.175054304917	945.18878365249	687.466770058057	180.673127237637	1120.7737614849
288.726403602701	140.917596325812	568.951025309186	1406.0562087778	231.329330767194	1939.54596031862	659.626765782716	141.113897378801	1243.21105432731	1003.58834376853	162.11978694057	1387.48826987394	1039.07888530699	130.237024504179	2285.07657370933	993.199900216222	150.970243302896	1410.49241236462	628.136335281318	128.082403674188	1118.94073036688	1105.34524262712	173.747365996432	1500.44477360343	851.686566452235	141.376534528961	1509.38104726074	1496.13539195474	188.344250268879	2157.33433424065	1302.25702017176	139.118459717673	2353.88481845228	776.900569997798	150.023779221956	1075.45549080191	658.784558615649	128.023779221956	1464.72173753225	977.021689184852	138.83178338758	1905.54982714365	361.742715744182	127.183485885345	945.157089593101	688.368298993587	180.775536671691	1121.7136315892
288.815622472906	140.938843073884	569.502022373171	1408.5591790758	231.646835796912	1942.98541735543	659.753469391832	141.101082211157	1244.20613364341	1004.1195081206	162.118547631051	1388.57694269645	1039.66628043049	130.223396063389	2287.54923524106	993.964307144041	150.986922974495	1412.74392242182	628.920779469214	128.061156926116	1120.38047993497	1106.53959617996	173.81238735693	1502.70270335531	852.993547610181	141.412323511502	1510.49298592252	1497.92878897703	188.440770141163	2159.03018972776	1303.7093912478	139.113897378801	2355.07277329023	777.780720374566	150.04072345119	1076.11834693838	659.443300763955	128.011749802608	1465.871894895	977.84933443964	138.844051947113	1907.40888912411	361.863813004571	127.183485885345	945.181839175304	689.258942243408	180.86259059813	1122.70097130859
288.898917788843	140.95927654881	570.005555272682	1411.21851854693	232.017926818379	1946.60314671451	659.917802722067	141.082403674188	1245.15328632797	1004.75416314141	162.114159236662	1389.65743723864	1040.19879602364	130.205530799567	2290.44641115877	994.710048335761	150.995349747749	1415.34775692073	629.697279989542	128.04072345119	1122.01416896953	1107.7280222416	173.873025595694	1505.28234101395	854.337025839323	141.436387087799	1511.89382743679	1499.80170912219	188.54185235232	2161.30266410257	1305.21486144388	139.101082211157	2357.08226197929	778.674958357798	150.062484149013	1077.14459808867	660.102767330247	128.004650252251	1467.24057474349	978.732124328582	138.857761060371	1909.53751825512	361.982005523358	127.175054304917	945.302831150448	690.164116986196	180.935497326854	1123.81421841857
288.986749251208	140.976220778044	570.522014995517	1414.04610254239	232.457198713133	1950.5329154511	660.149873460604	141.061156926116	1246.19826129153	1005.53105120844	162.110833148395	1390.88591766033	1040.69635902686	130.186018359229	2293.75751948703	995.485615323952	150.998672777103	1418.29342857972	630.477620826403	128.023779221956	1123.86438823304	1108.95936204842	173.933663764886	1508.21467298037	855.720280430563	141.443751265365	1513.63873961042	1501.77008806928	188.641633533025	2164.19457391504	1306.74387534167	139.083730897085	2359.93614177485	779.570946563742	150.088381149336	1078.5351387008	660.801940091309	128.002654445794	1468.93864450487	979.710696951965	138.874352818591	1911.98257180633	362.106981062294	127.16051039176	945.535736452914	691.106540140121	181.001327222897	1125.10279023222
289.088002278362	140.988250197392	571.114089388969	1417.01841667852	232.974390315737	1954.89086809826	660.464421646204	141.04072345119	1247.48502739233	1006.45669568475	162.113630179914	1392.40804925125	1041.18343472015	130.166370632599	2297.42036929619	996.340159746288	151	1421.53728346687	631.272169165121	128.011749802608	1125.93762426064	1110.27380450463	173.996554998736	1511.47910649751	857.130533751292	141.433839506919	1515.72853661213	1503.80528958722	188.734284163753	2167.62019326101	1308.25159903885	139.065807178367	2363.54725957755	780.451874115638	150.118809488912	1080.23793336428	661.559713549825	128.004650252251	1471.01560924916	980.796709729265	138.894267536593	1914.70893795564	362.243141865278	127.143654075904	945.867628109687	692.096653792033	181.069152925397	1126.57473088507
289.207519099076	140.995349747749	571.828903926433	1420.07278764332	233.569340077879	1959.71522599311	660.855660033478	141.023779221956	1249.11311886285	1007.50174628175	162.125659599262	1394.31082908053	1041.67688569115	130.14688919188	2301.30199557644	997.306702632786	151	1424.98993445056	632.082897438417	128.004650252251	1128.20352185913	1111.68144063751	174.060642976365	1514.98323518883	858.533483741346	141.409803455472	1518.10666894362	1505.83345764166	188.814932899984	2171.37593940878	1309.67973232153	139.053800476695	2367.73370136209	781.294992128319	150.154076655615	1082.16177032092	662.373093465409	128.011749802608	1473.45606792722	981.972069323778	138.916269102915	1917.61712499245	362.390035794758	127.130559291521	946.266712925014	693.129308437561	181.150486427375	1128.19826599375
289.345144214494	140.998672777103	572.688253846365	1423.10685611321	234.230597844863	1964.93538871645	661.298005273273	141.011749802608	1251.10666788269	1008.60328916121	162.148233570231	1396.59138912891	1042.17916583287	130.126974404306	2305.21254885912	998.387505026509	151	1428.52384616722	632.898087237465	128.001327222897	1130.58972102689	1113.1545222386	174.121515686083	1518.56898453256	859.875573259067	141.379613215047	1520.66340895513	1507.73729404416	188.880392344938	2175.17987695383	1310.95783637953	139.052208696163	2372.24519218175	782.068965840277	150.196039416324	1084.18931004085	663.214857618047	128.023779221956	1476.18225429553	983.18670776058	138.938843073884	1920.56206481264	362.540958406706	127.127233203254	946.687900046559	694.177124580426	181.252892802516	1129.91008449685
289.496154739819	141	573.681318729927	1425.99868549483	234.932872454368	1970.3671258088	661.753908414121	141.004650252251	1253.39924083738	1009.68197193035	162.178639192132	1399.14970450564	1042.67723729268	130.105732463407	2308.91266011607	999.551160782332	151	1431.97106965238	633.6944487208	128	1132.97629563552	1114.63345827706	174.172521831033	1522.02221560306	861.089435274202	141.351844817453	1523.25539392567	1509.37604839155	188.929519851706	2178.72467253762	1312.00768551647	139.064223056406	2376.7981032493	782.733606957767	150.244207230313	1086.19459935797	664.041501362224	128.04072345119	1479.07532280182	984.371262307039	138.95927654881	1923.39640269789	362.684093991723	127.138736624767	947.090608944191	695.197763024349	181.379346016161	1131.63210596305
289.65471055853	141	574.765364421417	1428.61842390209	235.636251983629	1975.74226273727	662.180042714373	141.001327222897	1255.84487113684	1010.65374941591	162.214028330745	1401.80616817801	1043.14107240506	130.083730897085	2312.14519242277	1000.73111836791	151	1435.13653551972	634.437663075909	128	1135.20742426956	1116.03532092052	174.207792126222	1525.10328048578	862.101328659309	141.334239373664	1525.72562777575	1510.60158846706	188.963143752539	2181.73404540038	1312.74297120728	139.089586400323	2381.10266114054	783.238485317973	150.297116065259	1088.05211343653	664.799533531048	128.061156926116	1481.98234599282	985.448679306332	138.974893555147	1925.98257083121	362.804562071649	127.166383050452	947.442255433624	696.137640246384	181.525706289236	1133.28295071758
