Light	Light	Light	Light	Light	Light	Light	Light	Light	Light	Light	Light	Light	Light	Light	Light	Light	Light	Light	Light	Light	Light	Light	Light	Light	Light	Light	Light	Light	Light	Light	Light	Light	Light	Light	Light	Light	Light	Light	Light	Light	Light	Light	Light	Light	Light	Light	Light
Optode1-730nm	Optode1-Ambient	Optode1-850nm	Optode2-730nm	Optode2-Ambient	Optode2-850nm	Optode3-730nm	Optode3-Ambient	Optode3-850nm	Optode4-730nm	Optode4-Ambient	Optode4-850nm	Optode5-730nm	Optode5-Ambient	Optode5-850nm	Optode6-730nm	Optode6-Ambient	Optode6-850nm	Optode7-730nm	Optode7-Ambient	Optode7-850nm	Optode8-730nm	Optode8-Ambient	Optode8-850nm	Optode9-730nm	Optode9-Ambient	Optode9-850nm	Optode10-730nm	Optode10-Ambient	Optode10-850nm	Optode11-730nm	Optode11-Ambient	Optode11-850nm	Optode12-730nm	Optode12-Ambient	Optode12-850nm	Optode13-730nm	Optode13-Ambient	Optode13-850nm	Optode14-730nm	Optode14-Ambient	Optode14-850nm	Optode15-730nm	Optode15-Ambient	Optode15-850nm	Optode16-730nm	Optode16-Ambient	Optode16-850nm
839.791248281685	153.998672777103	1433.39682291369	1345.98818823322	218.189463360493	2015.18769714123	877.092815454919	177.734284163753	1577.83357170457	1457.88983137131	153.199885940204	2056.39341808892	1028.26775750511	166.83536637491	1929.01194224215	1202.87752421999	142	1855.6956814131	1022.61265319163	141.857673146993	1997.35181576696	1220.54120420264	178.95927654881	1974.28792544575	826.372723743325	155.529566637332	1367.10434349936	1801.1053249921	193.95927654881	2713.08050562095	1040.4340216479	193.937515850987	1853.46484868527	1399.25081448106	142	1938.77766367489	892.633310514392	182.748488071642	1965.36937038025	1353.38685444233	130.49807293272	2568.73269024387	887.625749924688	143	2028.18118497481	1044.04520321207	147	1966.83328980539
840.413227099527	153.994022524852	1434.68190406924	1347.01606843331	218.079057927159	2017.00701023834	877.712455287298	177.640306310128	1579.19380354189	1459.15207123069	153.149538075452	2058.13503434216	1028.93209408629	166.755530911825	1931.98703097559	1203.4461821415	142	1858.52449393784	1023.36647071459	141.846444535045	2000.39498437954	1221.27728300416	178.874340400738	1976.91540473536	826.483070434924	155.45734948153	1368.07693009923	1801.37375253153	193.874340400738	2714.60627423064	1040.43902580547	193.809738473358	1854.54420609148	1399.53943640313	142	1940.36683994091	893.006503080195	182.642672705616	1966.74309992385	1353.98217371513	130.468945623596	2570.80755358121	888.09431980004	142.998672777103	2029.98448329537	1044.28878690578	147	1967.58030578852
840.766319201655	153.982272722244	1435.23236558083	1347.78194462788	217.959820723185	2018.26298440624	878.095575885074	177.535874877173	1579.92715343244	1459.82025501624	153.101880377306	2058.64121987137	1029.33694722119	166.658984847096	1934.16096406762	1203.52391512249	141.998672777103	1860.04388052254	1023.81986997885	141.831332954842	2002.66738991543	1221.62851699633	178.780186923941	1978.6019488693	826.284641196475	155.376267468017	1368.31902253077	1800.9203713502	193.778859701044	2714.50657753768	1040.14477273358	193.673127237637	1854.86075977071	1399.09419369327	141.998672777103	1940.38373060579	893.235720673342	182.519050582022	1967.55777446088	1354.13146793091	130.432774141883	2571.37106171429	888.355292955661	142.994022524852	2030.86268090162	1044.34015251028	146.998672777103	1967.61671358562
840.7926651037	153.958493500288	1435.00941307692	1348.18706939687	217.826962319332	2018.87125988819	878.185947514033	177.423042863408	1579.97994072916	1459.74393115427	153.059852420895	2057.82377588689	1029.41594898446	166.548690044816	1935.35767786261	1203.05190581477	141.995349747749	1860.09961921364	1023.90080364628	141.809738473358	2003.9849494119	1221.51445756019	178.673127237637	1979.15285031266	825.756209003414	155.291343737799	1367.76209912359	1799.71162969655	193.668476985386	2712.64196540793	1039.52970055455	193.523700834272	1854.33144980057	1397.88172013997	141.995349747749	1938.70342007271	893.27778423703	182.375917696778	1967.70547632812	1353.75951893736	130.389797695607	2570.21556511323	888.369120851974	142.982272722244	2030.67717434561	1044.1648758437	146.994022524852	1966.83858616719
840.456899859828	153.917770049098	1434.05261277198	1348.16060312658	217.678899565098	2018.82140994921	877.956397439387	177.302743769168	1579.37503937358	1458.83657939191	153.023779221956	2055.74248138232	1029.14490661431	166.42760520228	1935.52790895416	1202.04024092021	141.986922974495	1858.73567039605	1023.5955024278	141.779310133782	2004.30082965745	1220.91259422121	178.553252383689	1978.52061532613	824.901977950395	155.209390496347	1366.41517009278	1797.79312072184	193.541502581081	2709.08554128895	1038.60195739591	193.359867413159	1852.96785342381	1395.95764505891	141.988250197392	1935.42664347331	893.109311381904	182.214979589957	1967.1612466803	1352.85877489408	130.341966412116	2567.35350427286	888.125107673749	142.958493500288	2029.41712357866	1043.75838923199	146.982272722244	1965.24695798677
839.74691958346	153.856613122982	1432.44756591804	1347.6644130818	217.515851961853	2018.15582815926	877.401475692189	177.175054304917	1578.18471362362	1457.07845961742	152.991293610006	2052.5615671491	1028.53323288742	166.298181430295	1934.71933294532	1200.55309845808	141.970243302896	1856.14689782766	1022.93182265003	141.738413225343	2003.66219627349	1219.85403915063	178.423042863408	1976.78179202141	823.754897079885	155.13740940187	1364.35514134545	1795.27929039308	193.399263641452	2704.09584776891	1037.39501751581	193.183485885345	1850.85513103549	1393.45287698662	141.976220778044	1930.84540765287	892.721736617632	182.03992528504	1965.96528684757	1351.48692710162	130.291232065711	2562.99518339081	887.636437629151	142.917770049098	2027.17664797775	1043.14523070867	146.958493500288	1962.93970205522
838.676018747309	153.774209448794	1430.29208482898	1346.69482803477	217.338106715335	2016.94478830887	876.533969897163	177.03992528504	1576.49324650764	1454.52304366582	152.95927654881	2048.49437216453	1027.61548921002	166.162239137273	1933.02887714074	1198.68752850662	141.941549271054	1852.59456287043	1021.95949734729	141.68647831766	2002.15511482011	1218.41059192451	178.285366262651	1974.09013517218	822.3775277222	155.080902728005	1361.7081330698	1792.34037782236	193.244642811461	2698.04724490417	1035.96227881504	193	1848.11705472103	1390.54639169043	141.95927654881	1925.36198804236	892.116741793566	181.856867114757	1964.20683173794	1349.74803677134	130.241042668676	2557.51337500748	886.929758400534	142.856613122982	2024.13058623931	1042.36959420636	146.917770049098	1960.09973931244
837.279629673434	153.673127237637	1427.6638391902	1345.28405390578	217.145839082414	2015.25465066702	875.378776585027	176.898119622694	1574.36242764847	1451.29175678956	152.922443019025	2043.76055378486	1026.4405165224	166.021246748072	1930.57319185444	1196.55843786513	141.897336574172	1848.34199096486	1020.73571810589	141.62416811313	1999.87333401072	1216.68515827766	178.143560600305	1970.64139047188	820.853158473212	155.041506499712	1358.62994897593	1789.17080943446	193.082403674188	2691.36438386716	1034.366058913	192.816514114655	1844.89246376327	1387.43197804946	141.938843073884	1919.4080654464	891.303446064214	181.672860038751	1961.99432001498	1347.77108234572	130.192781582672	2551.36396568061	886.039421539842	142.774209448794	2020.48933452172	1041.48545520683	146.856613122982	1956.94988324808
835.609557680982	153.559229858837	1424.60193799306	1343.4894747872	216.93981496332	2013.12393165737	873.965466143126	176.750684218612	1571.80820460433	1447.55767423426	152.8760898261	2038.55960254115	1025.0630684759	165.876872874622	1927.46035281681	1194.28273838361	141.83536637491	1843.60949999088	1019.31457354862	141.553340297067	1996.89948451381	1214.79414524089	178	1966.6380350708	819.278517796779	155.017727277756	1355.28334317658	1785.97037321224	192.917596325812	2684.44693838876	1032.67409912707	192.640132586841	1841.30996964603	1384.29628122227	141.917596325812	1913.36974834011	890.299990666026	181.493523011701	1959.44232313315	1345.68999335155	130.147783137494	2545.00734122065	885.003661597632	142.673127237637	2016.46908602128	1040.54474090552	146.774209448794	1953.70876484982
833.728992180237	153.440770141163	1421.10707043683	1341.3837380118	216.721468996109	2010.54952733856	872.323627843159	176.601280532923	1568.79752276722	1443.52803562665	152.816687837942	2033.0589342498	1023.5419187278	165.731577966583	1923.79488243104	1191.97610880751	141.755530911825	1838.57568128326	1017.75189147849	141.476826184648	1993.3252715048	1212.85901550832	177.856439399695	1962.28380049276	817.74994539145	155.005977475148	1351.82202174654	1782.91925260362	192.755357188539	2677.62815809145	1030.95383392984	192.477626388625	1837.48516063234	1381.30174533424	141.897590565946	1907.54910850961	889.132585438771	181.322222510112	1956.65992636392	1343.61902201754	130.107510119041	2538.84459943014	883.861985475672	142.559229858837	2012.26954544642	1039.58181989275	146.673127237637	1950.54721001947
831.709848113705	153.325545539466	1417.17163926858	1339.05105532867	216.492183370951	2007.50508705427	870.490261918673	176.452799560511	1565.27981717441	1439.43499721682	152.742715744182	2027.42945554189	1021.94128227071	165.58898655594	1919.69351818979	1189.74896467544	141.660312069993	1833.39945188226	1016.11517905311	141.396990721564	1989.28534719032	1210.99529889144	177.714633737349	1957.77927089061	816.352580909334	155.001327222897	1348.38684816823	1780.16822456788	192.600736358548	2671.16295027026	1029.27630521175	192.331523014614	1833.5320859537	1378.58886997676	141.881452368949	1902.16153035603	887.842958193936	181.159960655163	1953.75634016833	1341.65006674901	130.072906728724	2533.18155660883	882.660303936968	142.440770141163	2008.07044423141	1038.61343225406	146.559229858837	1947.56446716735
829.626093971723	153.221140298956	1412.80763844105	1336.57376474512	216.256398176291	2003.95710097006	868.507065876216	176.310193090764	1561.21938103408	1435.50606453088	152.655749731121	2021.85728117835	1020.33362741203	165.453847166669	1915.31290980306	1187.71088508648	141.554667519964	1828.26146415378	1014.49354576696	141.317643015785	1984.9869734957	1209.30835004428	177.576957136592	1953.33650752292	815.151639016241	154.998672777103	1345.10492127669	1777.83399867748	192.457170196022	2665.24019234808	1027.71227320738	192.20201132925	1829.57882497688	1376.27376185971	141.868463256822	1897.35530156656	886.484997758307	181.005977475148	1950.84898615446	1339.84358282688	130.045373703441	2528.22649283529	881.44806143473	142.326872762363	2004.03756665162	1037.63554900623	146.440770141163	1944.79203687166
827.554067838241	153.13163707441	1408.0806492222	1334.03751666123	216.017465419895	1999.90169149668	866.431189960499	176.176640326762	1556.63903024277	1431.95429858837	152.559229858837	2016.56665850388	1018.8017426288	165.331523014614	1910.85814808824	1185.96909211635	141.445332480036	1823.38932277594	1012.99854606008	141.241936614291	1980.70728790477	1207.88780953574	177.446747616311	1949.17591560048	814.190544135238	154.995349747749	1342.0909297007	1776.00229842091	192.326872762363	2660.00622272721	1026.33577283622	192.087590593866	1825.77735809728	1374.45969271615	141.857673146993	1893.24177185516	885.125543027339	180.857766622592	1948.05945822154	1338.24302097117	130.025106444853	2524.09260821209	880.283580533854	142.225790551206	2000.3202097772	1036.63679042194	146.326872762363	1942.20580570512
825.571505502682	153.058450728946	1403.12795003221	1331.52903823319	215.779919725055	1995.39281817816	864.334908521192	176.053800476695	1551.64706635181	1428.95781375064	152.45814764768	2011.80650192928	1017.43328182297	165.227117774103	1906.58925412938	1184.6211012613	141.339687930007	1819.06877803008	1011.75371127117	141.173317297408	1976.77906278781	1206.80229336517	177.32819998526	1945.53017936409	813.491699237797	154.988250197392	1339.4524698288	1774.73241450087	192.209390496348	2655.59795659724	1025.21715079203	191.984216777324	1822.3066972754	1373.23720510997	141.846444535045	1889.92854633771	883.837110989977	180.714633737349	1945.50585636464	1336.88002687745	130.011749802608	2520.8172258725	879.22788859985	142.143386877018	1997.05070021187	1035.60856060278	146.225790551206	1939.75845684746
823.754241012474	153.000783048522	1398.14883423159	1329.13666320332	215.546953037308	1990.55238551905	862.304156967326	175.941375547768	1546.43813629799	1426.6442290683	152.358366466975	2007.80995009618	1016.30928946645	165.143386877018	1902.78059281588	1183.73885956721	141.244469088175	1815.59147101679	1010.87068429173	141.114957402811	1973.51997308678	1206.09124458989	177.224463328309	1942.60238866302	813.061875925918	154.976220778044	1337.28619244829	1774.05998469112	192.101880377306	2652.14766399986	1024.417473542	191.88862267723	1819.35561378791	1372.67618754391	141.831332954842	1887.52321114148	882.688829616712	180.575629913695	1943.29831810661	1335.77827524826	130.003323029354	2518.38946904242	878.335483853075	142.082229950902	1994.33859781436	1034.55402649093	146.143386877018	1937.41180518433
822.172540355567	152.956570351639	1393.37469242779	1326.94876352132	215.320895287215	1985.56120014587	860.430241014415	175.837760862727	1541.26603140964	1425.0780671362	152.265715836247	2004.73653997761	1015.49732477493	165.082229950902	1899.68301743148	1183.35749089551	141.16463362509	1813.19974024024	1010.43119540964	141.069152925397	1971.17477216916	1205.76390267962	177.13740940187	1940.53821813876	812.894089797906	154.957949325913	1335.66921168264	1773.98922017205	192	2649.77464498251	1023.97749850807	191.797037411537	1817.09483505169	1372.81213434342	141.809738473358	1886.1221266506	881.734289288804	180.44209736406	1941.51487780183	1334.9573076974	129.996676970646	2516.74997449835	877.647663077426	142.041506499712	1992.25252497841	1033.4937216239	146.082229950902	1935.14962616311
820.881539662372	152.923573800959	1389.03361738619	1325.04262142128	215.101880377306	1980.63588899386	858.795350760455	175.739196273865	1536.40782504075	1424.24931787272	152.185067100016	2002.62860788124	1015.0322122859	165.041506499712	1897.47740979386	1183.45615034349	141.102663425828	1812.01560398167	1010.4604497683	141.036856247461	1969.8676283697	1205.7896332983	177.064502673146	1939.39013106805	812.969888089946	154.934192821633	1334.64539123617	1774.48188717417	191.898119622694	2648.54890650637	1023.90701632195	191.707012996331	1815.64139155093	1373.62038205825	141.780637356678	1885.77797595867	881.00624280551	180.315122959755	1940.19120840995	1334.42844526196	129.988250197392	2515.79769123112	877.183751215707	142.017727277756	1990.80413074324	1032.46583915238	146.041506499712	1932.98189936121
819.913012763799	152.90024501174	1385.30742855479	1323.47144840483	214.887167986235	1975.99444693313	857.459669028913	175.6430486693	1532.11438405806	1424.0709247238	152.119607655062	2001.38728718747	1014.91003401033	165.016400054859	1896.22994904004	1183.9539901093	141.058450728946	1811.98740804478	1010.92321173718	141.016400054859	1969.56856382213	1206.09972530805	177	1939.08824459887	813.256470959604	154.905846523204	1334.21288674954	1775.44320191624	191.791936726549	2648.45347614143	1024.1769834223	191.617151668977	1815.03237614271	1375.00239824099	141.744390700491	1886.4630494988	880.510660355512	180.197361076999	1939.32554691064	1334.18334013729	129.976220778044	2515.4101740536	876.935445033602	142.005977475148	1989.95774362645	1031.51421470295	146.017727277756	1930.94562060709
819.266762233216	152.884775398303	1382.30480409721	1322.25187577961	214.673389095498	1971.81947507859	856.449193893985	175.54774191409	1528.57246228102	1424.3906937454	152.070480148294	2000.78409603811	1015.0862744732	165	1895.89262723005	1184.71504611481	141.029756697104	1812.89185543703	1011.73210005185	141.005977475148	1970.12800914669	1206.59273036269	176.935497326854	1939.45577441695	813.707419781892	154.87381134399	1334.30949531429	1776.72706384619	191.679104712785	2649.34741189386	1024.72525393473	191.527736154224	1815.20928310855	1376.78849580845	141.702878372519	1888.03713552262	880.231191299521	180.09091362322	1938.88048776637	1334.19396930436	129.95927654881	2515.44537675798	876.872617784974	142.001327222897	1989.62748563638	1030.6791088535	146.005977475148	1929.08422535648
818.917402325633	152.876890030076	1380.0552918805	1321.36999460797	214.457437394909	1968.24038815747	855.759901575186	175.453585308807	1525.88763913489	1425.02851576469	152.036856247461	2000.51633353502	1015.48544561588	164.983599945141	1896.30459698649	1185.5698235042	141.013077025505	1814.36141087517	1012.76896583928	141.001327222897	1971.3104394875	1207.14826415004	176.86259059813	1940.22478935479	814.258524858748	154.840728917759	1334.81633338455	1778.13549679523	191.560557081733	2650.9674851149	1025.45651221907	191.440770141163	1816.02673176865	1378.74823720357	141.661024360592	1890.25096251803	880.134437498206	179.997293802829	1938.78906941671	1334.40768336922	129.938843073884	2515.75047237741	876.94786712734	142	1989.69007541061	1029.98806277035	146.001327222897	1927.43088181007
818.821938986203	152.874352818591	1378.52410420452	1320.79047393664	214.238596429482	1965.32711645085	855.365649262645	175.362928805848	1524.08397634757	1425.8116623398	152.016400054859	2000.28044682844	1016.01440813732	164.958493500288	1897.23533764059	1186.34569841512	141.004650252251	1815.96719703608	1013.90725102707	141	1972.849890908	1207.64791085172	176.774209448794	1941.0936481029	814.836084272572	154.807306330706	1335.5714996634	1779.45495238714	191.439442918267	2652.97236221729	1026.26193153119	191.357039244078	1817.28096739857	1380.62894666804	141.622493222464	1892.78191966846	880.17898175967	179.917052151437	1938.96775681673	1334.7594474297	129.917596325812	2516.17577682868	877.108937020954	142	1990.00397782798	1029.45172375422	146	1926.00196312442
818.932412694905	152.87381134399	1377.63851782589	1320.47119976062	214.018792642791	1963.10231390617	855.228416195519	175.277203780994	1523.12005755012	1426.60946446141	152.005977475148	1999.84367124047	1016.58194797978	164.917770049098	1898.41931249747	1186.8990424854	141.001327222897	1817.2965896118	1015.03330863514	141	1974.48552083892	1207.99437824586	176.667149762489	1941.76972608304	815.362644782355	154.773942249907	1336.38811977841	1780.48595737542	191.320895287215	2654.98079257888	1027.03256066273	191.278443090512	1818.73586373214	1382.19428495021	141.590456364562	1895.26932074202	880.319881976804	179.849510665335	1939.3219048714	1335.17164260714	129.898917788843	2516.58771622685	877.304594486591	142	1990.42785334499	1029.06243183496	146	1924.79510022706
819.207703618637	152.872222622371	1377.31899360709	1320.37831366268	213.805026169908	1961.56147385388	855.31032214872	175.199095384734	1522.91403209479	1427.35027594026	152.001327222897	1999.09207844433	1017.1070375313	164.856613122982	1899.60880056728	1187.13489043664	141	1818.03074193879	1016.05413372972	141	1976.00072972245	1208.11984149863	176.541502581081	1942.02068477685	815.768060962571	154.739384848741	1337.08840925903	1781.07406947079	191.208063273451	2656.64912883978	1027.67385679059	191.20481100202	1820.1685964699	1383.25994010681	141.564330543824	1897.37770114312	880.513885728704	179.7932763673	1939.75858361566	1335.57026875731	129.886102621199	2516.87907940283	877.493782544897	142	1990.83930675135	1028.80066874631	146	1923.79812411444
819.618826883692	152.865936345159	1377.49837524127	1320.49472066518	213.605403766254	1960.68504465476	855.581496031073	175.129104600526	1523.36549873047	1428.02529753282	152	1998.05023792193	1017.53082101005	164.774209448794	1900.59256022878	1187.01909957433	140.998672777103	1817.9778592929	1016.90305792544	141	1977.22660954782	1207.9953950138	176.399263641452	1941.69047617715	816.003258645978	154.701035521183	1337.52824543255	1781.13586297079	191.101880377306	2657.70986399358	1028.12206438391	191.135753718146	1821.39560760353	1383.7211040365	141.54185235232	1898.83689585474	880.718852523562	179.744929046606	1940.19426068608	1335.885608086	129.881540282327	2516.97106887847	877.644337055316	142	1991.15107069095	1028.63585872306	146	1922.99347747484
820.151276238868	152.851766429769	1378.1343168148	1320.82045023226	213.429536188191	1960.45104208803	856.023631439758	175.065807178367	1524.37793778692	1428.67472357988	151.998672777103	1996.8610501665	1017.81983498611	164.673127237637	1901.23302780625	1186.57745906852	140.995349747749	1817.09857317578	1017.5420612134	141	1978.06489874098	1207.63036582618	176.244642811461	1940.72476743475	816.04439054145	154.655749731121	1337.62586341956	1780.66479597523	190.998672777103	2658.01733035997	1028.34598081101	191.070109697205	1822.30134961357	1383.5610262494	141.518073130364	1899.48180139835	880.898037316379	179.701725094105	1940.57014269387	1336.06361515268	129.886102621199	2516.82991112407	877.736749438319	142	1991.32593837085	1028.53550477896	146	1922.37475864199
820.799305925111	152.82843764055	1379.196245343	1321.36769824742	213.284241280152	1960.82689806797	856.628371897443	175.008426773254	1525.86130395277	1429.36183514203	151.994022524852	1995.73382607249	1017.96634077127	164.559229858837	1901.46828810603	1185.88280928186	140.988250197392	1815.48414045156	1017.96059127319	141	1978.48930753664	1207.06664678953	176.082403674188	1939.16205592079	815.897368474414	154.600910081835	1337.37193674295	1779.72329878106	190.893469370443	2657.56911870884	1028.3480281902	191.007099550357	1822.85392981874	1382.84554326805	141.48807806807	1899.28526936613	881.022716221063	179.660850416108	1940.85944442406	1336.07491614091	129.898917788843	2516.45960028893	877.765708674695	142	1991.37843191385	1028.47171800912	146	1921.94490769349
821.557784519711	152.796795837616	1380.65382802738	1322.14426280523	213.173143574122	1961.76142593293	857.388781102797	174.954195522586	1527.73358065118	1430.14416181161	151.983599945141	1994.88323806445	1017.98643716901	164.440770141163	1901.31824330712	1185.0377650274	140.976220778044	1813.32595607832	1018.17776905273	141	1978.55455733442	1206.37019942456	175.917596325812	1937.1251208573	815.598171616577	154.53545063688	1336.83196711451	1778.4361771867	190.780186923941	2656.49728674245	1028.16287889694	190.946569974393	1823.10153909511	1381.7101945379	141.449723933338	1898.35945543739	881.078613845901	179.618631846995	1941.07747365833	1335.92462212678	129.917596325812	2515.91692598976	877.741655067955	142	1991.37758399187	1028.42870915596	146	1921.72467316194
822.414169956826	152.758957331324	1382.4595733794	1323.14288166937	213.095306976407	1963.17516570641	858.293263595978	174.90224387711	1529.91560756236	1431.05165567344	151.964470975436	1994.47252935915	1017.91221516169	164.326872762363	1900.87188585335	1184.14806892171	140.95927654881	1810.87416126411	1018.23710916835	141	1978.38790455593	1205.61695092448	175.755357188539	1934.80080532771	815.199363501875	154.460514043167	1336.12853938178	1776.95549639519	190.655325490828	2655.04500766967	1027.84306045478	190.887167986235	1823.15464454342	1380.32864797409	141.402680146405	1896.94101591032	881.071791004994	179.57204502648	1941.28110945564	1335.6593270249	129.938843073884	2515.31597821393	877.693532774907	142	1991.43823663791	1028.41128240138	146	1921.75207817011
823.342002483995	152.719190514	1384.54206129085	1324.32710734446	213.046156751963	1964.96277742441	859.315516413552	174.851094787296	1532.32649319345	1432.07335194487	151.935497326854	1994.57847491609	1017.78776308307	164.225790551206	1900.27263427263	1183.30880022295	140.938843073884	1808.39433824005	1018.20573145394	141	1978.17198898866	1204.88551862334	175.600736358548	1932.41328793132	814.76402687875	154.379525301669	1335.4206113867	1775.44583354375	190.519833630544	2653.53148287643	1027.45082706764	190.827372275514	1823.1659905628	1378.88726086197	141.351878875984	1895.36036067872	881.029856706385	179.518506407647	1941.5613761814	1335.36490778362	129.95927654881	2514.82030780523	877.666860242275	142	1991.70314788493	1028.44645124046	146	1922.07967944718
824.303254629427	152.683140032737	1386.80899492313	1325.63223752527	213.019054500653	1966.99662861057	860.413949406478	174.801166473127	1534.88369137428	1433.16298689989	151.898119622694	1995.18429296047	1017.65762758004	164.143386877018	1899.69332969424	1182.58621126612	140.916269102915	1806.12554747255	1018.15767736859	140.998672777103	1978.11490776107	1204.23994728029	175.458497418919	1930.19379963181	814.351782362273	154.29763725592	1334.86368280203	1774.05192339597	190.379613215047	2652.27377880239	1027.04431289017	190.766582879516	1823.27914721402	1377.54936475935	141.303614731068	1893.96297658376	880.996158520508	179.456916204248	1942.02558511365	1335.15065947084	129.976220778044	2514.63177951433	877.715801791911	141.998672777103	1992.31908423275	1028.57713858	146	1922.76700702259
825.253364476072	152.655576007834	1389.16454565938	1326.97449918309	213.005977475148	1969.1514417155	861.536197613524	174.753762904698	1537.51177482148	1434.25731404027	151.856439399695	1996.21730241871	1017.56023672511	164.082229950902	1899.31324345337	1182.01246683915	140.892940313696	1804.26137254487	1018.1633835866	140.995349747749	1978.4185790344	1203.72393045264	175.332850237511	1928.35410498227	814.011236045229	154.222017089115	1334.58491346264	1772.8835116355	190.244469088175	2651.53058593492	1026.6719251351	190.703689966977	1823.60222680846	1376.43583013358	141.267390792556	1893.04092691911	881.022222210743	179.388296887365	1942.77028958838	1335.12834892472	129.988250197392	2514.9500696636	877.893949100652	141.995349747749	1993.40557142676	1028.8525160138	146	1923.8629109042
826.151912079865	152.641459809738	1391.52914371576	1328.26606180596	213.001327222897	1971.32281514596	862.626100974174	174.712113681318	1540.14947933552	1435.3002535695	151.816514114655	1997.58833651754	1017.52442225554	164.041506499712	1899.28164572274	1181.59673106597	140.869702566341	1802.92514892953	1018.28143868024	140.988250197392	1979.23240212033	1203.36371608521	175.227117774103	1927.05502021594	813.77731418943	154.157534074733	1334.66439444222	1772.00980754139	190.12470834005	2651.45898271201	1026.36721501796	190.637852204847	1824.18441806254	1375.61531223518	141.249569773162	1892.77570527939	881.151917129957	179.315820794673	1943.84931443759	1335.38022502498	129.994022524852	2515.91833772131	878.237055518427	141.988250197392	1995.01654442642	1029.30886288962	146	1925.38127914305
826.973136430466	152.643214747696	1393.84762218193	1329.43777035492	213	1973.43424447468	863.637637309383	174.677510291002	1542.74946760597	1436.26415515253	151.783693187146	1999.22632720856	1017.56847986053	164.017727277756	1899.69461785359	1181.33392642601	140.846011257763	1802.17214087841	1018.54442169485	140.976220778044	1980.6193018948	1203.17063126269	175.143386877018	1926.38718194343	813.67088959783	154.109762976186	1335.1236664384	1771.46240935784	190.029489498217	2652.09160530478	1026.14899059161	190.570979661445	1825.00546810372	1375.11258869865	141.255342100623	1893.21429747238	881.411317126315	179.244207230313	1945.2531214348	1335.9450100634	129.994022524852	2517.57638588097	878.755917166434	141.976220778044	1997.12076250195	1029.95979163096	146	1927.27791313009
827.706856283947	152.660132784485	1396.10111591682	1330.44391986535	213	1975.45106523824	864.537303693113	174.652680693541	1545.28413254237	1437.14625479982	151.762992651276	2001.10202488359	1017.69808847631	164.005977475148	1900.59203772369	1181.21505870959	140.820272725157	1802.00970914869	1018.95639726626	140.95927654881	1982.5542377446	1203.1435404657	175.082229950902	1926.37784336463	813.700932379322	154.080902728005	1335.93930000212	1771.23954045659	189.963770233229	2653.36506833494	1026.02216044102	190.50447464816	1825.99621445037	1374.91653008015	141.283865316468	1894.29246849149	881.800665282175	179.178661909808	1946.90317145018	1336.80863491251	129.988250197392	2519.83693517995	879.430898783831	141.95927654881	1999.59958248683	1030.78875642837	146	1929.44496144723
828.354602011758	152.690085922551	1398.29920964192	1331.26461939263	213.001327222897	1977.37221668108	865.307039619503	174.638141587558	1547.74199533034	1437.95939718334	151.755893100918	2003.22103973249	1017.9120996516	164.001327222897	1901.95189376449	1181.23794166212	140.792387159287	1802.40339326101	1019.50075267351	140.938843073884	1984.92818642081	1203.27934912401	175.041506499712	1926.98746018446	813.871060581389	154.070480148294	1337.05945873683	1771.33079711877	189.927609120911	2655.1617218682	1025.98687425321	190.440770141163	1827.06852111387	1375.00733504676	141.327938127399	1895.88525684251	882.293020327954	179.122582951003	1948.6745778371	1337.90759087133	129.976220778044	2522.51388344174	880.213444822846	141.938843073884	2002.27709044402	1031.74838085866	146	1931.72770451698
828.921134085278	152.727896903994	1400.45527992822	1331.89766801415	213.004650252251	1979.20245880189	865.941680021549	174.632224500939	1550.11112248187	1438.71006023268	151.761241188087	2005.5844274052	1018.20412535165	164	1903.70762373756	1181.40316076456	140.762285922899	1803.29737693621	1020.14605954852	140.917596325812	1987.58943522308	1203.56805359258	175.019054500653	1928.13179456245	814.176240328922	154.074233951621	1338.41863178536	1771.71104067927	189.916645066599	2657.34861669909	1026.0372269947	190.381627973039	1828.14007818711	1375.35924939472	141.377506777536	1897.85807384371	882.843067639823	179.078884203872	1950.43660959048	1339.15108313739	129.95927654881	2525.38287424424	881.039895711732	141.917596325812	2004.97141355764	1032.77137442408	146	1933.96158549812
829.411642811238	152.767628447846	1402.58227514059	1332.35342812282	213.011749802608	1980.95212450793	866.448396072536	174.633463810458	1552.38943821255	1439.39665975099	151.775790663465	2008.17582610607	1018.56573866577	164	1905.77488648447	1181.71094471867	140.730250743686	1804.62820476166	1020.86022520836	140.898917788843	1990.39172710495	1203.99458237375	175.010627727398	1929.70569980858	814.603556078919	154.087053926439	1339.95042403439	1772.34655493453	189.923573800959	2659.81151910525	1026.16481037846	190.327938127399	1829.15698947784	1375.94625155301	141.420581147447	1900.10776707644	883.393523791882	179.046700926337	1952.08091742888	1340.4372127273	129.938843073884	2528.24084761277	881.840860478313	141.898917788843	2007.53340596549	1033.7830273366	146	1936.00902296144
829.82924596297	152.803966145897	1404.67304883811	1332.65092598714	213.023779221956	1982.61580957369	866.846264661257	174.639206952594	1554.57171629752	1440.00665625009	151.795282473579	2010.93052182414	1018.98659576224	164	1908.06662969912	1182.15040418985	140.698923255412	1806.33080694541	1021.61453543757	140.8861026212	1993.22592899666	1204.5340419315	175.013077025505	1931.59980969115	815.128900514673	154.102409434054	1341.60197249474	1773.18744334551	189.940170296781	2662.48265587433	1026.35581604838	190.279744120964	1830.11112574691	1376.73441353827	141.448925767189	1902.58382999683	883.889531029684	179.025106444853	1953.55644665466	1341.67170690445	129.917596325812	2530.98097414626	882.555882626025	141.886102621199	2009.89118361187	1034.71338712745	146	1937.80349943336
830.182976569391	152.832312444327	1406.70173058646	1332.82197647441	213.04072345119	1984.1760826373	867.165948203551	174.647580008554	1556.65407884645	1440.53564417763	151.815715948506	2013.74217694209	1019.45299791199	164	1910.50381006795	1182.69365711101	140.670956952846	1808.32943454634	1022.386502834	140.881540282327	1996.03191060016	1205.15108561246	175.023779221956	1933.71028032518	815.718108311921	154.115224601697	1343.32102110547	1774.16666014615	189.95927654881	2665.3107260834	1026.59236457605	190.236480329804	1831.0167643979	1377.67408204218	141.458414846566	1905.25342660962	884.286938529434	179.011749802608	1954.87108599392	1342.78015340728	129.898917788843	2533.59816903061	883.140897206623	141.881540282327	2012.04934404542	1035.50898734139	146	1939.35638199386
830.485386232507	152.851766429769	1408.62663860109	1332.90417337271	213.061156926116	1985.60414876672	867.442562020462	174.656706364987	1558.62851509057	1440.98946891248	151.834415115697	2016.47363842298	1019.94655857853	163.998672777103	1913.00919359521	1183.29576388651	140.649710204774	1810.52142202902	1023.15493048247	140.884775398303	1998.78094952571	1205.79888173847	175.04072345119	1935.93211521301	816.325076238124	154.123109969924	1345.0564118168	1775.19095683713	189.976220778044	2668.23895534222	1026.84560878058	190.197343921545	1831.89713157025	1378.6875790272	141.451719739795	1908.06952610086	884.559530857849	179.004650252251	1956.06247522995	1343.70946076756	129.886102621199	2536.14301647426	883.574531032003	141.8861026212	2014.05285241302	1036.13900910667	146	1940.72596145417
830.758726993574	152.862061541382	1410.40156226376	1332.94833267375	213.082403674188	1986.87413612247	867.714760026471	174.665412754981	1560.48499584113	1441.39712082375	151.850573596635	2018.99010415001	1020.44085211716	163.995349747749	1915.50931513842	1183.89515884803	140.638564495446	1812.78355413342	1023.89292120342	140.894267536593	2001.45861164893	1206.42330682469	175.061156926116	1938.16713558085	816.902673299684	154.125647181409	1346.7525118233	1776.15983091529	189.988250197392	2671.1846329303	1027.08503420253	190.160598305138	1832.76438864311	1379.67992748069	141.434792666016	1910.93918420911	884.701242778558	179.001327222897	1957.17804320805	1344.42796541977	129.881540282327	2538.6711539575	883.856049749689	141.898917788843	2015.95591741356	1036.5942048283	146	1941.9853733098
831.025660656552	152.86505231409	1411.98464034772	1332.9986434809	213.101082211157	1987.96861009263	868.010916778038	174.670576181988	1562.20798515325	1441.79075155021	151.865140227468	2021.1835520295	1020.90419604883	163.988250197392	1917.91678167922	1184.42926214611	140.640132586841	1814.9626777531	1024.56931141451	140.905846523204	2004.02782405276	1206.97209880572	175.082403674188	1940.30818966929	817.403539267689	154.124861433113	1348.34193603284	1776.96941590041	189.995349747749	2674.00864527592	1027.27762321409	190.12618865601	1833.5986815666	1380.54354960553	141.415328380752	1913.69834589579	884.718956677631	179	1958.23499347184	1344.90956128711	129.886102621199	2541.16848315933	883.997018242238	141.917596325812	2017.7714728037	1036.87723107509	146	1943.171147555
831.304061767506	152.863813004571	1413.3382238553	1333.09023011494	213.113897378801	1988.87337724914	868.345568267218	174.66927995871	1563.76948520333	1442.19417412853	151.878797923155	2022.97729744641	1021.30145666905	163.976220778044	1920.12960537128	1184.84150231565	140.655576007834	1816.89348516482	1025.14707954528	140.915063851928	2006.41876371729	1207.39875834129	175.101082211157	1942.24526740522	817.785832931262	154.123127125378	1349.74563966927	1777.52965975038	189.998672777103	2676.51837973876	1027.39194527698	190.094153476797	1834.34134060813	1381.17538220582	141.398996442565	1916.1161161443	884.627252360999	179	1959.19497372019	1345.13286032551	129.898917788843	2543.50539756926	884.015344100677	141.938843073884	2019.43704031088	1036.99700749769	146	1944.24709563206
831.596934883499	152.85966895345	1414.4254464118	1333.23586156804	213.118459717673	1989.57358960609	868.71163599067	174.657416755701	1565.1242234794	1442.60272550282	151.891613090799	2024.3262951005	1021.59980713466	163.95927654881	1922.02875593059	1185.0927421984	140.683140032737	1818.4097701774	1025.59004795618	140.917225874723	2008.52409796825	1207.67243510547	175.113897378801	1943.86617154156	818.022803456038	154.122313852232	1350.874090943	1777.78480298858	190	2678.47880690011	1027.40971372424	190.065807178367	1834.89569819341	1381.50262292824	141.387767830618	1917.92357488191	884.442480038825	179	1959.95872946944	1345.07936968487	129.917596325812	2545.43220139697	883.92747594604	141.95927654881	2020.81357946433	1036.96210381829	146	1945.09492450581
831.885816071791	152.853544085403	1415.19779996283	1333.41539146464	213.113897378801	1990.03591843406	869.077820168163	174.630643286268	1566.20368848357	1442.96729184525	151.901196270953	2025.19383088631	1021.77108856013	163.937515850987	1923.47600489258	1185.16252762172	140.719190514	1819.36082674998	1025.86830577471	140.90908637678	2010.20270005093	1207.77888302443	175.118459717673	1945.05559954609	818.09891048362	154.123127125378	1351.6333772247	1777.71562984051	189.998672777103	2679.64559720531	1027.32076870104	190.042050674087	1835.13557210798	1381.4909956962	141.379525301669	1918.85775314382	884.176523121278	179	1960.37927918222	1344.73877107864	129.938843073884	2546.61749840479	883.744794685667	141.976220778044	2021.70411885443	1036.78030178181	146	1945.53184439675
832.125944882469	152.84336237419	1415.58225053656	1333.57369260208	213.101082211157	1990.19775708358	869.388582170572	174.587405341269	1566.91104348086	1443.18684667339	151.901986826423	2025.5196218311	1021.79641994579	163.912946073561	1924.32458109648	1185.04615404073	140.757630108427	1819.61962418421	1025.96227229502	140.889446468345	2011.30035551744	1207.7176907455	175.113897378801	1945.70326202465	818.010345577213	154.124861433113	1351.93315362941	1777.34020181151	189.995349747749	2679.81667394364	1027.12471947213	190.023779221956	1834.93149808363	1381.15236136911	141.369056245573	1918.72553758899	883.838603573554	179	1960.29031842751	1344.1181830655	129.95927654881	2546.71455299609	883.475657612252	141.988250197392	2021.89554700776	1036.46177352714	146	1945.34800569694
832.249708893479	152.826682702592	1415.47876551936	1333.62166763924	213.082403674188	1989.9651492964	869.569905268778	174.52667132304	1567.1291196608	1443.11638336357	151.888796400517	2025.20484099795	1021.66234516651	163.887167986235	1924.43748840579	1184.7434955788	140.792145585366	1819.08951930195	1025.86313347221	140.858738512028	2011.67343762868	1207.49325310697	175.101082211157	1945.71071973021	817.764881879287	154.125647181409	1351.70014360871	1776.71213390775	189.986922974495	2678.8714254351	1026.82967778507	190.011749802608	1834.17318644121	1380.53976308233	141.351166585386	1917.44618886738	883.439104625826	179	1959.55581643216	1343.2576905395	129.976220778044	2545.46202809039	883.132413246499	141.995349747749	2021.22232391044	1036.02816149496	146	1944.36931857184
832.173128178074	152.799743608708	1414.76005696313	1333.44866093113	213.061156926116	1989.21119899447	869.537645843483	174.451719739795	1566.72806653821	1442.58777726803	151.857940345879	2024.09779705875	1021.36057160809	163.862323399243	1923.7063530516	1184.2481202593	140.816687837942	1817.70921104369	1025.57247282147	140.820272725157	2011.21807182612	1207.10607196684	175.082403674188	1945.00087401006	817.37473387859	154.124437192821	1350.88278518849	1775.89835115271	189.971570525793	2676.7881595165	1026.44750612489	190.004650252251	1832.78707889492	1379.72970126301	141.322065468706	1915.06598494792	882.990783322591	178.998672777103	1958.10819766582	1342.22391901119	129.988250197392	2542.76395370694	882.731469201784	141.997345554206	2019.61736429272	1035.51146339589	146	1942.51089555567
831.819988370126	152.759659973415	1413.29535449359	1332.95153085831	213.04072345119	1987.80521463949	869.220055739949	174.367863412439	1565.5932953316	1441.46239547488	151.807833349626	2022.02379870891	1020.88906508033	163.840816831137	1922.07767605523	1183.5433654579	140.827987207813	1815.45360872881	1025.10413800795	140.779659905021	2009.89723733167	1206.54996941374	175.061156926116	1943.53098348939	816.857433748402	154.121202076845	1349.46567636402	1774.97352327535	189.947526746202	2673.65706232209	1025.99445237221	190.001327222897	1830.76085848728	1378.80572616562	141.282113991221	1911.75199861856	882.514185692321	178.994022524852	1955.98039512124	1341.10632925864	129.995349747749	2538.73884408303	882.298423053841	141.995349747749	2017.14849053021	1034.95700970956	146	1939.81833074095
831.142850319203	152.705156854629	1410.98361788915	1332.06264072273	213.023779221956	1985.63763186133	868.574465044899	174.281499058922	1563.65128647816	1439.67557833556	151.741383714111	2018.83578891725	1020.24922405717	163.823618472186	1919.56625652897	1182.60723964228	140.823885671073	1812.33402781885	1024.47754956562	140.741214797998	2007.75140276813	1205.81232125768	175.04072345119	1941.29889501309	816.231001356466	154.117482266015	1347.47151018397	1773.992905843	189.915063851928	2669.65326379902	1025.48583896911	190	1828.13972699497	1377.82993250129	141.235959139143	1907.74525796289	882.031928881779	178.982272722244	1953.30915266792	1339.99636889213	129.998672777103	2533.71082999979	881.860378940183	141.988250197392	2014.01640829437	1034.411559642	146	1936.47113478962
830.144831736032	152.636983280774	1407.80002371951	1330.78100253292	213.011749802608	1982.66754549372	867.607848728568	174.200684106353	1560.90398783123	1437.27698130592	151.665412754981	2014.48975177816	1019.45348342576	163.810536639507	1916.28455529164	1181.42716458828	140.805088221107	1808.42749799069	1023.72005183447	140.710781651248	2004.91956069997	1204.88452487379	175.023779221956	1938.37225447873	815.517890226779	154.117932698753	1344.96444542997	1772.99514039936	189.875545651725	2664.99756374824	1024.94073930416	190	1825.02452830512	1376.83961454894	141.192446267114	1903.30036828626	881.570390591325	178.958493500288	1950.30943223133	1338.97123476199	129.998672777103	2528.13592577949	881.445953398504	141.976220778044	2010.51527277202	1033.9191289824	146	1932.74616485773
828.883568054087	152.55790263594	1403.83356980859	1329.17559433761	213.004650252251	1978.95696144371	866.376199424039	174.13163707441	1557.45002086435	1434.4303041789	151.587226055761	2009.10171009082	1018.52673423307	163.800114059796	1912.42282852577	1180.01977464712	140.773680392046	1803.87401347354	1022.86826448056	140.689539710349	2001.60908497086	1203.77627318436	175.011749802608	1934.87886270873	814.748598653904	154.125659599262	1342.06127236571	1772.00192350593	189.833110610476	2659.94592113299	1024.38243189436	190	1821.57201963217	1375.84680398176	141.159003883355	1898.65373299653	881.155029870625	178.917770049098	1947.22956964743	1338.07979414057	129.995349747749	2522.49410649692	881.079730553967	141.95927654881	2006.96778234644	1033.5132818278	146	1928.95805937778
827.466490935644	152.472263845776	1399.29190826793	1327.38235851594	213.001327222897	1974.67536282453	864.98109085088	174.077579698651	1553.48253013257	1431.38747400287	151.513676869888	2002.95809956451	1017.51347404331	163.789416670519	1908.24572428942	1178.44621858217	140.73309133062	1798.89468812816	1021.96964578858	140.676729280307	1998.08146917179	1202.5277399536	175.004650252251	1931.01690073713	813.962478919956	154.143931051393	1338.92349080031	1771.02868004118	189.791949144403	2654.76182208168	1023.83841525708	190	1817.98110119816	1374.85273219463	141.143386877018	1894.00112102035	880.809597705487	178.856613122982	1944.31165013661	1337.34007100773	129.986922974495	2517.1915161583	880.781689421941	141.937515850987	2003.66939144106	1033.21392377269	145.998672777103	1925.39507228301
826.029046903643	152.38417555392	1394.49797457809	1325.57406168531	213	1970.10283261815	863.549401990885	174.040179276815	1549.28331624226	1428.43133247706	151.450433165024	1996.49421947744	1016.47541463407	163.776314157991	1904.06289258034	1176.81173259052	140.686740175522	1793.78690837527	1021.0822572953	140.669795946288	1994.62171470303	1201.20971390482	175.001327222897	1927.04211758786	813.211084364736	154.171990074511	1335.75352307406	1770.09958937936	189.755351626317	2649.71542935528	1023.34421682311	190	1814.48299786251	1373.86765874938	141.147689395856	1889.50581369068	880.557433830217	178.774209448794	1941.74797719802	1336.75026374037	129.971570525793	2512.4830560887	880.569710651746	141.912946073561	2000.83347411324	1033.03286388514	145.995349747749	1922.26313576591
824.708304695319	152.298964478817	1389.8371607323	1323.9284073913	213	1965.58131625338	862.212417154387	174.017727277756	1545.18065091998	1425.81250285546	151.399089918165	1990.2086712237	1015.49174022382	163.760443021937	1900.19603858759	1175.25881408576	140.640656081367	1788.8994029514	1020.28008441827	140.664555237406	1991.50888376437	1199.92585400646	175	1923.24473975117	812.555089822139	154.206985490561	1332.78003155842	1769.26284483937	189.726831538958	2645.08864924541	1022.93986130181	190	1811.327427897	1372.92839623173	141.169955519813	1885.32667229751	880.417701419362	178.674454460534	1939.67000323536	1336.29983536795	129.947526746202	2508.47628559713	880.460019292335	141.887167986235	1998.58583493615	1032.97798223283	145.988250197392	1919.68358423852
823.615812771255	152.220689866218	1385.69100978662	1322.58888475755	213	1961.45547714279	861.078652092162	174.005977475148	1541.49693587271	1423.69301855512	151.359693689872	1984.55673847629	1014.64657190522	163.743607385931	1896.92693264188	1173.93548375216	140.599409135651	1784.57580120266	1019.63732382421	140.657857964712	1988.97236000987	1198.78955855304	175	1919.90464462896	812.056717597919	154.244736287061	1330.22776994779	1768.58156636958	189.707551342446	2641.15418946945	1022.66319468796	190	1808.74520769994	1372.09214055746	141.206138224917	1881.62377390341	880.405342246677	178.565207333984	1938.1489026829	1335.98444494721	129.915063851928	2505.1686794134	880.468355452437	141.862323399243	1996.97375719466	1033.05922992884	145.976220778044	1917.70163870663
822.82091423737	152.152883822482	1382.37400101207	1321.64394834283	213	1958.01947973176	860.219641966442	174.001327222897	1538.50163375863	1422.12049558375	151.329423818012	1979.85864006024	1014.01904129127	163.729460188216	1894.47202880744	1172.9670824124	140.567221050943	1781.10221845964	1019.22612581966	140.648826558982	1987.17735684337	1197.90901236477	175	1917.25619284876	811.771504344495	154.279058022811	1328.28130007364	1768.12847813746	189.697516050867	2638.13500499963	1022.54637733246	190	1806.90835274848	1371.42958077125	141.248891541096	1878.54371072618	880.528047318163	178.458497418919	1937.203930939	1335.81316404544	129.876872874622	2502.50502228585	880.607722077505	141.840816831137	1995.99195056154	1033.29253910438	145.95927654881	1916.31977728289
822.343377597199	152.098013173577	1380.0814591204	1321.1153619167	213	1955.46593567333	859.659455290935	174	1536.36949495891	1421.032012052	151.306940819334	1976.23923844297	1013.66314872175	163.721209038133	1892.95276124285	1172.41944050759	140.545979110045	1778.6525486143	1019.09570580886	140.639334420692	1986.21461375056	1197.35590577554	175	1915.45099426572	811.73700383661	154.306591048095	1327.06934569008	1767.95873604462	189.695955200381	2636.19355589582	1022.60422443187	190	1805.91716068685	1370.9969061155	141.293863793829	1876.21549636116	880.786775542178	178.367052039178	1936.83177850794	1335.80642598938	129.83643363983	2500.45370685514	880.888111745109	141.824945695083	1995.62213269758	1033.69529875884	145.937515850987	1915.5355475032
822.161241588219	152.057123506049	1378.87008760581	1320.9678851348	213	1953.8701211399	859.382122333179	174	1535.16481450348	1420.29516281162	151.290109990501	1973.63403586943	1013.60170675462	163.722269200086	1892.38830064885	1172.2876296403	140.536250840857	1777.2546604278	1019.27068238636	140.633551723836	1986.10399443074	1197.15599256589	175	1914.5334420378	811.96972882234	154.327139961249	1326.63678197126	1768.10218875237	189.701818569705	2635.37614585317	1022.83931408478	190	1805.77146703453	1370.82332247776	141.33756254096	1874.70578378912	881.177373579704	178.303370249857	1937.02457524811	1335.98989892038	129.79904869476	2499.03844958255	881.313478476353	141.816514114655	1995.85689905409	1034.28064682509	145.912946073561	1915.36018180547
822.224216147717	152.029756697104	1378.67265245747	1321.12928368289	213	1953.19683754541	859.342308795165	174	1534.84935615767	1419.76292448399	151.279770313409	1971.84503190896	1013.82726168747	163.730786656065	1892.7127106403	1172.50235727275	140.535442374885	1776.80048932004	1019.7517473645	140.635594006678	1986.8182283528	1197.2863009769	175	1914.44873272982	812.458338646932	154.34169160255	1326.95146984561	1768.5439118615	189.712873237169	2635.61660410613	1023.23729180277	190	1806.38785471609	1370.89612710924	141.378198078772	1874.01136931992	881.692048504434	178.275023951428	1937.77406537041	1336.38318783348	129.767381045665	2498.3322838134	881.882210776841	141.816514114655	1996.70050271319	1035.04752059617	145.887167986235	1915.81137548195
822.47703402277	152.014404248402	1379.33682247067	1321.5229613021	213.001327222897	1953.33418870473	859.487123986697	174.001327222897	1535.31088362335	1419.33608560579	151.277717730745	1970.63275609975	1014.30127616372	163.744841133228	1893.80966753481	1172.94898363682	140.541445267482	1777.08932141378	1020.51308936175	140.650160637511	1988.31014969606	1197.68205231935	175	1915.07307243413	813.171801995254	154.354143929786	1327.91687414444	1769.23253392603	189.726569681097	2636.74283949881	1023.77759259123	190	1807.62148928726	1371.16704569793	141.414611282979	1874.05129306858	882.324978130825	178.284241280152	1939.07467907476	1336.99558910208	129.743775768192	2498.4367872345	882.586819163295	141.824945695083	1998.16486525652	1035.97995184063	145.862323399243	1916.90464079066
822.872314949112	152.010627727398	1380.68596753658	1322.08503338482	213.005977475148	1954.14877508502	859.766987532715	174.004650252251	1536.40834073375	1418.99011452301	151.287310317731	1969.82227392124	1014.97153420719	163.759390608606	1895.52691070689	1173.51186571918	140.551339753009	1777.87489976483	1021.51475670992	140.67926175419	1990.50497460257	1198.26510067776	175	1916.23792648814	814.06289937436	154.367246442314	1329.3949482514	1770.09086300205	189.740190880977	2638.50582826146	1024.43447734926	190	1809.29045297015	1371.56557205964	141.444549431514	1874.67350798343	883.066188725073	178.327655810885	1940.9151384322	1337.81104935837	129.727984817372	2499.43473579088	883.409635265582	141.840816831137	2000.25389107328	1037.03925118001	145.840816831137	1918.63413286625
823.379654905059	152.017727277756	1382.55734428773	1322.78019171417	213.017727277756	1955.51558323356	860.146246046571	174.013077025505	1537.99734579077	1418.7779038065	151.309928533129	1969.34982985166	1015.77999608241	163.770176028726	1897.71768043972	1174.09895178519	140.562034131265	1778.93745469795	1022.70066309028	140.72253626103	1993.31569650275	1198.96085800731	175	1917.78116634012	815.07612355555	154.381362640409	1331.23715927427	1771.02899988002	189.750530558069	2640.62977619276	1025.17834546285	190	1811.21317931094	1372.01213467071	141.464723086406	1875.67899585911	883.90199528079	178.397340492803	1943.2523365051	1338.79089466747	129.718762798939	2501.32416660859	884.325567200945	141.862323399243	2002.92730422993	1038.17207405323	145.824945695083	1920.93928558783
823.984889478992	152.036856247461	1384.83640876538	1323.6000425038	213.041506499712	1957.35355089164	860.605007154543	174.029756697104	1539.96450815218	1418.79846639587	151.346787480364	1969.28012463754	1016.67644059898	163.774992497316	1900.25456042687	1174.66869048727	140.572713969179	1780.12619485658	1024.01052458378	140.775790663465	1996.63908480143	1199.71846169975	175	1919.57449445078	816.158058324306	154.394069214826	1333.3097150183	1771.96717871691	189.755792769687	2642.86196373875	1025.9822079017	190	1813.23694474024	1372.44490992199	141.471372204027	1876.86238984471	884.814582704011	178.482803659796	1946.00182207637	1339.87631036582	129.714633737349	2503.98343317023	885.302642841632	141.887167986235	2006.08779991402	1039.31532134447	145.816514114655	1923.69172078603
824.678517157272	152.070480148294	1387.45600608344	1324.54611172723	213.083557173799	1959.61944516789	861.131403554164	174.057123506049	1542.22989549129	1419.14451724087	151.39655270668	1969.75883823761	1017.62303955744	163.773258189581	1903.03587418826	1175.22994201564	140.581891743184	1781.3783749134	1025.38693457422	140.832660177739	2000.35394002379	1200.51687707511	175	1921.53483104825	817.26063944382	154.402076554962	1335.51241735656	1772.84743842035	189.75498673745	2645.01821206162	1026.81847650417	190.001327222897	1815.25887710847	1372.82824943727	141.462543908156	1878.0505110146	885.780050590424	178.573372249377	1949.03931490661	1340.99934462355	129.713306514452	2507.16733195498	886.307248932384	141.912946073561	2009.58195626558	1040.4079429207	145.816514114655	1926.69876944434
825.449384575551	152.119607655062	1390.37417280548	1325.6223746607	213.149364352166	1962.28815260987	861.719586381733	174.098013173577	1544.73983338294	1419.86321228288	151.454912531704	1970.92821516155	1018.59866880276	163.768169922447	1905.98754692701	1175.82858658526	140.588442647603	1782.71823559292	1026.78320520155	140.886369820086	2004.33543101731	1201.36096423622	175	1923.63054384493	818.346112155587	154.401988845169	1337.78551687053	1773.64656389108	189.750256503551	2647.01690195894	1027.66519596624	190.004650252251	1817.23989431777	1373.16562916599	141.437168098494	1879.14496327983	886.772332170056	178.660312069993	1952.20573267729	1342.09344283519	129.714112546688	2510.5433235656	887.30937722872	141.937515850987	2013.21673547895	1041.39908404914	145.824945695083	1929.72577171405
826.274715017688	152.185067100016	1393.54446004057	1326.81450354615	213.243517828962	1965.32407890456	862.360664779419	174.152883822482	1547.45120282869	1420.92190980067	151.517441042611	1972.84584047232	1019.58966505404	163.764058016311	1909.05006906019	1176.5192696161	140.592495656861	1784.21898179565	1028.16362637354	140.930847074603	2008.45576297845	1202.26473203311	175	1925.8606255589	819.389409452011	154.393217259473	1340.10516407314	1774.37658780389	189.743607385931	2648.88655425376	1028.5047143222	190.013077025505	1819.19896777869	1373.49314073911	141.398989586933	1880.14033775897	887.766884147565	178.738153405309	1955.3403177823	1343.11545261388	129.716235014764	2513.76789414083	888.291463809824	141.95927654881	2016.80096637222	1042.26204504873	145.840816831137	1932.54409327289
827.116662410368	152.265715836247	1396.88252027948	1328.08548503557	213.369706484972	1968.64663079819	863.038120332845	174.220689866219	1550.30385896614	1422.20958092668	151.57923729739	1975.41382283622	1020.58675142049	163.766227767251	1912.16610337376	1177.3387816216	140.593190086583	1785.95729172483	1029.50733496657	140.963143752539	2012.60120113812	1203.23927022512	175	1928.23312399241	820.377983420521	154.378719269433	1342.46744069403	1775.07791620687	189.739646706602	2650.73606660169	1029.3278790792	190.028429474207	1821.18906881092	1373.87023948466	141.355569435456	1881.11329915313	888.744458313912	178.803872670298	1958.30082183417	1344.05115356136	129.719996546236	2516.56043426848	889.24928620808	141.976220778044	2020.1810767198	1042.99647656054	145.862323399243	1934.97497195938
827.924725118191	152.358366466975	1400.25382819839	1329.37487288784	213.528977567213	1972.12285790737	863.725444840885	174.298964478817	1553.209613794	1423.55527747728	151.635742292567	1978.37602081069	1021.57338793717	163.779130848273	1915.25622677869	1178.27961174104	140.590740718903	1787.95035152244	1030.79953257327	140.983599945141	2016.6656113783	1204.27277831257	175	1930.72723514324	821.308145473969	154.364138794436	1344.87066494877	1775.80396558493	189.742536458673	2652.70981146303	1030.13011560707	190.053800476695	1823.26584478081	1374.35362700613	141.314843343015	1882.18254247305	889.697516574086	178.857411289132	1960.98375937552	1344.92109074401	129.726657594475	2518.75801296457	890.196903522592	141.988250197392	2023.26492766975	1043.63177626472	145.887167986235	1936.92236563615
828.641159479473	152.45814764768	1403.47846641792	1330.60510899821	213.72034401361	1975.57411596186	864.383366422023	174.38417555392	1556.04659878225	1424.76303782813	151.68342234925	1981.35581055941	1022.52023930504	163.803698947011	1918.21108850826	1179.28340737371	140.582986363117	1790.11865230571	1032.02822798407	140.994022524852	2020.55709351249	1205.32729160976	175	1933.27400306984	822.181972294725	154.355846410945	1347.30413628618	1776.59433620431	189.755893100918	2654.93216296974	1030.90881727801	190.089586400323	1825.45952045753	1374.97085956399	141.285620254426	1883.45855758333	890.627480575723	178.899869048056	1963.34782930535	1345.76960397515	129.737891768644	2520.35110348481	891.158484277748	141.995349747749	2026.04786364799	1044.21740581603	145.912946073561	1938.39600103879
829.213156378899	152.559229858837	1406.36075850209	1331.70098665861	213.943078734349	1978.80839558482	864.970311744226	174.472263845776	1558.67504734783	1425.66230849741	151.721468996109	1983.94375272768	1023.38932471196	163.837760862727	1920.90246964562	1180.25102962647	140.569774410458	1792.28829836043	1033.18746138837	140.998672777103	2024.21599857824	1206.34311390476	175	1935.76139601594	823.005442618965	154.3589285718	1349.73561013898	1777.46764930105	189.780370157792	2657.44471605573	1031.66393765018	190.136204150883	1827.74893608756	1375.71307516103	141.27522039239	1884.98312157474	891.551628829787	178.934192821633	1965.41283365534	1346.65711845646	129.754029965642	2521.45811747056	892.17127553901	141.998672777103	2028.60174963572	1044.8169930645	145.937515850987	1939.49496121813
829.603189377244	152.655749731121	1408.72839979327	1332.60499472535	214.195267112354	1981.66161375898	865.448871118883	174.559229858837	1560.96389515203	1426.1446107154	151.749903207917	1985.8013678199	1024.14126759745	163.876872874622	1923.19060360132	1181.06856932498	140.550629500238	1794.20862074601	1034.2794465765	141	2027.60861325924	1207.2542751856	175	1938.0397352742	823.786668887068	154.376000269131	1352.11910554281	1778.41014036422	189.815186891758	2660.19225952045	1032.39610607339	190.191995834377	1830.06629215084	1376.52897817788	141.283865316468	1886.71025897192	892.498225677715	178.962599578164	1967.25091058092	1347.6415385792	129.775790663465	2522.27846069206	893.277388121959	142	2031.0567139777	1045.49542354238	145.95927654881	1940.37953175118
829.798055232948	152.742715744182	1410.46704031469	1333.29463869828	214.474897473778	1984.02945891282	865.79719210831	174.640306310128	1562.81540221123	1426.18659719302	151.769817995491	1986.73927556585	1024.75335415361	163.915063851928	1924.96695348668	1181.64531568685	140.526766964562	1795.62507755331	1035.32845384265	141	2030.74825537465	1208.01510638866	175	1939.96947451188	824.535974131406	154.408042689254	1354.40527070234	1779.38533419511	189.856439399695	2663.02557618319	1033.11005315879	190.254751781934	1832.31026217143	1377.34400508102	141.309387058528	1888.50673548107	893.50303757103	178.989297803549	1968.98042520253	1348.7691981191	129.801166473127	2523.05079715185	894.519557135238	142	2033.5853447488	1046.30975129206	145.976220778044	1941.24624328277
829.809948876041	152.816687837942	1411.54867375807	1333.7848242347	214.779825983417	1985.89509261537	866.01416395231	174.712256404986	1564.19248145236	1425.84632697525	151.782107165301	1986.75992541039	1025.22287731264	163.947526746202	1926.1791656427	1181.93749832532	140.502360344562	1796.34673230789	1036.37597598574	141	2033.69125889551	1208.61048085031	175	1941.45736098206	825.268091268725	154.452525505993	1356.54936862139	1780.35133250945	189.898119622694	2665.73215483487	1033.8164629667	190.322205354658	1834.36663288502	1378.08650143852	141.34345210273	1890.17626081915	894.60213953628	179.016679671599	1970.73825305711	1350.0660119159	129.827739805632	2523.99063434015	895.932892901856	142	2036.36099093009	1047.30277311011	145.988250197392	1942.28526376011
829.67786547991	152.8760898261	1412.03102085181	1334.12854026848	215.105226124336	1987.31896836057	866.123216966493	174.771689392763	1565.12089595381	1425.24431130404	151.787037034291	1986.03597717087	1025.57622264615	163.971570525793	1926.86003120153	1181.96583286341	140.48282081525	1796.31555217792	1037.48149563582	141	2036.53579055427	1209.06773539572	175	1942.49882021035	825.999290364334	154.506041407151	1358.52784021875	1781.27387872835	189.935497326854	2668.09545620935	1034.52947210554	190.392428382691	1836.1393752276	1378.70971795947	141.375577895095	1891.51874086788	895.817932261441	179.049150224444	1972.65581282464	1351.52750084524	129.853022894742	2525.25852121312	897.532668984953	142	2039.52666711473	1048.49364320775	145.995349747749	1943.6577460291
829.453652167181	152.921115796128	1412.03970565653	1334.39354739899	215.442519566526	1988.4176122917	866.162233960329	174.816687837942	1565.68127050931	1424.523810427	151.784766418268	1984.85487013391	1025.86318565442	163.986922974495	1927.11207913803	1181.81107501445	140.47332867696	1795.61716150552	1038.7089425501	141	2039.38731041725	1209.45006954962	175	1943.17012667105	826.746007369936	154.563880111087	1360.34210806586	1782.14407012017	189.964470975436	2669.95526783282	1035.26643715281	190.464011017004	1837.57229567924	1379.21253253359	141.39725067954	1892.38701731281	897.151620186192	179.088259177426	1974.82404570836	1353.12115751576	129.87409096073	2526.92168870961	899.304906148395	142	2043.14899309843	1049.87365956992	145.998672777103	1945.45856756301
829.194079991821	152.953299073663	1411.73001963952	1334.65417334713	215.779216658182	1989.32113283308	866.178462985484	174.847116177518	1565.97896201374	1423.81912766367	151.774986935094	1983.52423553951	1026.14512918522	163.995349747749	1927.09763084022	1181.59000355317	140.479381326583	1794.47539159495	1040.11148023978	141	2042.34370349044	1209.83872137098	175	1943.6226495792	827.52105793687	154.620932997155	1362.0098260204	1782.98494263956	189.983599945141	2671.24058921797	1036.04458708568	190.535988982996	1838.65225128036	1379.64295907199	141.401814697101	1892.72458561824	898.577129029587	179.136204150883	1977.26509434708	1354.79073120952	129.889166851605	2528.94397568989	901.202183222245	142	2047.18848417372	1051.40490869319	146	1947.6972965693
828.954420045756	152.974893555147	1411.24766576381	1334.97561363609	216.099928711546	1990.13148086591	866.219352833481	174.864609122263	1566.11334127219	1423.2351875481	151.760443021937	1982.29107026121	1026.47869721661	163.998672777103	1926.98903140155	1181.42291152283	140.502455986085	1793.18316403542	1041.7133776785	141	2045.45852395192	1210.30790046875	175	1944.03206736456	828.326879617995	154.673663150017	1363.56084441878	1783.83463419584	189.994022524852	2671.99747021894	1036.87033386484	190.607571617309	1839.41118640525	1380.08016574177	141.390295752735	1892.59399610918	900.044132290452	179.19066861148	1979.91061904366	1356.46743716871	129.896792399797	2531.18243499076	903.145924137275	142	2051.48131952745	1053.02624985042	146	1950.2838382112
828.774333608328	152.988250197392	1410.68219898695	1335.39857642772	216.387125457306	1990.88320990966	866.319690323968	174.872222622371	1566.14029960179	1422.83175279616	151.743607385931	1981.26688769984	1026.89723742011	164	1926.9167505935	1181.39662178328	140.542743994069	1792.01688585112	1043.49742064396	141	2048.71123674004	1210.89976623166	175	1944.53839310918	829.154534210023	154.719734688375	1365.0116317977	1784.73941268086	189.998672777103	2672.35494803551	1037.73913962311	190.677794645342	1839.89946540039	1380.61290345181	141.366536189542	1892.14961707982	901.486101009755	179.250101529684	1982.60402125966	1358.08342479711	129.898119622694	2533.41805603386	905.039267562734	142	2055.75781348571	1054.66347493753	146	1953.03925304768
828.677129589736	152.995349747749	1410.04590185568	1335.93833545559	216.624495325389	1991.52738436786	866.497069699108	174.87381134399	1566.04984944504	1422.63120337887	151.729460188216	1980.41049568635	1027.4040431047	164	1926.92371966252	1181.53971163094	140.596086106298	1791.14759288536	1045.40220311102	141	2051.99204949566	1211.61025566072	175	1945.19197192099	829.978272047007	154.758063385709	1366.34689213729	1785.72201965542	190.001327222897	2672.47114292074	1038.62604009659	190.745248218066	1840.15221256592	1381.30306464016	141.339600016629	1891.5831737892	902.827831570673	179.309128329153	1985.11578124725	1359.57952837647	129.893817103856	2535.3843081042	906.77919775854	142	2059.6730281995	1056.23678485321	146	1955.71421163247
828.660460841332	152.998672777103	1409.26684934063	1336.57516914339	216.799549630306	1991.93299541018	866.742488551836	174.874352818591	1565.75976669124	1422.61592251724	151.721209038133	1979.54764497391	1027.96245755867	164	1926.94773798477	1181.81638160573	140.658033587884	1790.58628031321	1047.32452928333	141	2055.10843280418	1212.38339090571	175	1945.92695042495	830.760280747332	154.787977775535	1367.51262312076	1786.76895550104	190.004650252251	2672.47414013593	1039.48974221833	190.808004165623	1840.17101104324	1382.16048899017	141.317113959038	1891.06070257885	903.998022372351	179.362671685587	1987.17361391637	1360.90850657296	129.887167986235	2536.81309878229	908.269848917602	142	2062.85978512083	1057.67257778122	146	1958.03080304511
828.699018896935	153	1408.22243599118	1337.25786037423	216.90484881643	1991.93605746681	867.019263944751	174.876890030076	1565.14233836699	1422.74229810546	151.722269200086	1978.45095722286	1028.50778876325	164	1926.81888036254	1182.14033768402	140.722884132384	1790.17605739312	1049.13661091784	141	2057.79379885196	1213.12686153242	175	1946.56076065551	831.449010743141	154.809738473358	1368.40871422987	1787.81398279317	190.011749802608	2672.39134047405	1040.2692834683	190.863795849117	1839.89250752074	1383.12448035545	141.30511206454	1890.64422843116	904.930525225146	179.405560288059	1988.50987379835	1362.02620323882	129.881452368949	2537.47816877151	909.430177820722	142	2064.99101854265	1058.90472360031	146	1959.73274929401
828.750629950246	152.998672777103	1406.76756369136	1337.91652714559	216.94014177967	1991.36772031042	867.270323253648	174.883448175406	1564.04487058	1422.95234149367	151.730786656065	1976.89994181786	1028.95801691458	164	1926.31713392344	1182.39979548537	140.784766418268	1789.65047831355	1050.70340082907	141	2059.76660859724	1213.73302839764	175	1946.85088181493	831.988249020684	154.821338090192	1368.90971226441	1788.74791516864	190.023779221956	2672.13140518028	1040.89320429805	190.910413599677	1839.20161458698	1384.07218012034	141.306605503775	1890.26197290005	905.568578944168	179.433325557168	1988.89304417893	1362.88180783777	129.88021305943	2537.20484721789	910.198310067533	142	2065.81786118469	1059.87445337738	146	1960.61410964303
828.768368193701	152.995349747749	1404.79141199162	1338.4768536191	216.911966297237	1990.11591685152	867.431730828578	174.894267536593	1562.34603243346	1423.18654774805	151.744841133228	1974.76734075231	1029.24120099242	164	1925.23522601088	1182.50007218212	140.839139837001	1788.72615059737	1051.91689276288	141	2060.79319260771	1214.11351335846	175	1946.56549704575	832.329441163303	154.822144122428	1368.88914995838	1789.44977213018	190.04072345119	2671.50448048324	1041.29705640042	190.944872300408	1837.958707624	1384.8546795748	141.319231737404	1889.72728820849	905.872388525828	179.442937992219	1988.1645641427	1363.42284823032	129.886102621199	2535.88877715968	910.537866505335	142	2065.20605377043	1060.5366558845	146	1960.54954218128
828.708880488296	152.988250197392	1402.25080802351	1338.87180592726	216.833256103491	1988.15343192045	867.444579817149	174.905846523204	1559.98843601361	1423.38785065433	151.759390608606	1972.05042870072	1029.30857005877	164	1923.44661048876	1182.3858121371	140.883189376457	1787.1979269914	1052.71500935755	141	2060.74466923836	1214.21845065336	175	1945.5586171968	832.439942016963	154.81266697367	1368.25255176212	1789.81490057211	190.061156926116	2670.28250867152	1041.43265052603	190.966920273543	1836.0410733764	1385.33464257814	141.339149583892	1888.79480541918	905.8237885306	179.434652780065	1986.27021381571	1363.6033248959	129.898917788843	2533.51528701713	910.442254022991	142	2063.16000364933	1060.86489846344	146	1959.51488153457
828.550150860709	152.976220778044	1399.18833686166	1339.0658106554	216.719902633027	1985.54889144992	867.277428928903	174.915063851928	1557.00583194502	1423.51880114909	151.770176028726	1968.86603979509	1029.15243310603	164	1920.9550030585	1182.05879796223	140.912689022874	1785.01673132327	1053.10009785171	141	2059.64625613094	1214.05316793365	175	1943.82308905823	832.314583574874	154.79518899798	1366.96897208536	1789.7925394769	190.083730897085	2668.28635090165	1041.28550694013	190.975173171887	1833.39298596782	1385.43165968053	141.360411321495	1887.25227440877	905.433203671362	179.411537763206	1983.26065141511	1363.40076112131	129.917596325812	2530.15729359717	909.939158221332	142	2059.81292717676	1060.85759443752	146	1957.58000980648
828.290496886257	152.95927654881	1395.73422420227	1339.05073226427	216.588781408253	1982.46144078551	866.929897236898	174.91855309762	1553.53548055701	1423.55421426111	151.774992497316	1965.42329354535	1028.80331941009	164.001327222897	1917.91240665544	1181.57203718922	140.926196822353	1782.30936958792	1053.13671222054	141	2057.68840804805	1213.6723812476	175	1941.50533758394	831.978886198945	154.774463440568	1365.09211303183	1789.40342551705	190.105732463407	2665.47226189498	1040.88035544742	190.971570525793	1830.06688016886	1385.14621988524	141.379074868932	1885.00964726875	904.743389606245	179.379071740446	1979.29952054894	1362.83537936517	129.938843073884	2525.99841050224	909.090666147448	142	2055.42101048728	1060.54582338156	146	1954.90912443179
827.954649181856	152.938843073884	1392.08897340841	1338.85402686221	216.457170196022	1979.11391124622	866.437929484636	174.915063851928	1549.80147286325	1423.49505691472	151.773258189581	1961.97745623523	1028.32520341312	164.004650252251	1914.57717153107	1181.01257986588	140.922420301349	1779.33702672129	1052.93771515396	141	2055.18120540262	1213.16788324159	175	1938.86267740347	831.484425965129	154.755357188539	1362.75854532895	1788.73040646335	190.126974404306	2661.96676573691	1040.274532037	190.957949325913	1826.22885408507	1384.55393199379	141.393732887912	1882.14143885636	903.82581512592	179.345984576614	1974.6464408981	1361.97504382912	129.95927654881	2521.33136379393	907.986615368209	142	2050.3360476592	1059.99101714128	146	1951.74551629802
827.590050685283	152.917596325812	1388.4997507972	1338.53748474514	216.338827712658	1975.76761030101	865.870398727956	174.905846523204	1546.09024857466	1423.37538012041	151.768169922447	1958.79340954575	1027.80263766826	164.011749802608	1911.26916328049	1180.48487111197	140.901986826423	1776.43107530004	1052.64094652995	141	2052.49734320056	1212.64874942883	175	1936.20859967398	830.899751813747	154.742542020895	1360.17054107617	1787.90163614548	190.14688919188	2658.05913182841	1039.54879542751	190.938843073884	1822.13983314065	1383.78183372276	141.404609028846	1878.88165409463	902.773192756275	179.320581677977	1969.62122870687	1360.92965271045	129.976220778044	2516.52351300274	906.734063588926	142	2044.95424796993	1059.27563923179	146	1948.37126203074
827.260232862673	152.90024501174	1385.22509309878	1338.18615547888	216.244845051859	1972.68529322947	865.314888819115	174.89559475949	1542.70504089703	1423.25863877738	151.764058016311	1956.11119123686	1027.32623839252	164.025106444853	1908.31292593171	1180.0872582618	140.86757237012	1773.91723347747	1052.3817426916	141	2050.01535453078	1212.22350174621	175.001327222897	1933.85287100596	830.302322815271	154.73973461998	1357.56957030244	1787.06380394828	190.167697855495	2654.15057540958	1038.79474673367	190.917596325812	1818.11960969094	1382.97805440429	141.41435919109	1875.57254281167	901.683679893459	179.310276266542	1964.57434055175	1359.82618238027	129.988250197392	2511.98457693586	905.440341587219	142	2039.68607919979	1058.4890277134	146	1945.08437350703
827.030970876032	152.89075287345	1382.50618190638	1337.89306333105	216.18489337673	1970.10328679221	864.861359427293	174.889425650553	1539.92399420294	1423.22762268623	151.766227767251	1954.12902394258	1026.97626876101	164.046700926337	1905.97381367842	1179.89713115365	140.824683837222	1772.0417107161	1052.2738813555	141	2048.04876723441	1211.98102199943	175.005977475148	1932.03588503582	829.764539576811	154.748426020443	1355.18975791965	1786.3453288539	190.191995834377	2650.64830262326	1038.0952795429	190.898917788843	1814.47626139282	1382.26948161189	141.425575337292	1872.5679231424	900.651535067528	179.3212712509	1959.84170516457	1358.79333808952	129.995349747749	2508.09626358864	904.206464445353	142	2034.90356834322	1057.71528058135	146	1942.15103210673
826.957291025205	152.893290084935	1380.532426587	1337.74095942717	216.164459901803	1968.20077927581	864.583926036626	174.894617307832	1537.95859922236	1423.36441207637	151.779130848273	1952.98590100798	1026.81198924078	164.078884203872	1904.43377884192	1179.96129817826	140.779919725055	1770.94455275879	1052.39216011436	141	2046.82338000719	1211.97844570409	175.017727277756	1930.90837477222	829.350374344177	154.768708268562	1353.2316526071	1785.84584405577	190.223258077322	2647.89798624284	1037.51991261727	190.886102621199	1811.47077970461	1381.74923835278	141.438947920051	1870.16557583841	899.755007384109	179.35530223657	1955.70173269181	1357.93458039589	129.998672777103	2505.14078816893	903.115156313892	142	2030.89675680874	1057.02067261784	146.001327222897	1939.76171234315
827.067976650831	152.909881843156	1379.41934585512	1337.77991475777	216.18489337673	1967.08138357096	864.523426994799	174.914532095406	1536.92536945647	1423.71980199362	151.803698947011	1952.75093896481	1026.86464388749	164.1239101739	1903.78045016783	1180.29102383105	140.73973461998	1770.66386495863	1052.7730667251	141	2046.4715376759	1212.23713748943	175.041506499712	1930.53014113126	829.109259240133	154.799048694761	1351.83212511648	1785.631356306	190.264902563101	2646.10830948075	1037.12077298142	190.881540282327	1809.27083838913	1381.47216158874	141.452776842835	1868.54373822412	899.050999676768	179.41216694367	1952.35432162919	1357.31778239266	129.998672777103	2503.27390618244	902.227114005694	142	2027.85640728969	1056.44733397422	146.004650252251	1938.01954712014
827.355416657271	152.939641240033	1379.18898267145	1338.01221055036	216.243517828962	1966.75952616347	864.678246454792	174.952718265538	1536.83167044985	1424.29040779814	151.837760862727	1953.40918039712	1027.13087921098	164.183312162058	1904.00414915058	1180.85963222528	140.711048316283	1771.14906942646	1053.41076890998	141	2047.02702808642	1212.7367893163	175.082229950902	1930.87764650186	829.073230399157	154.83643363983	1351.05767987862	1785.73331120607	190.31925445508	2645.34997776505	1036.92834257596	190.886102621199	1807.94554506524	1381.46002982438	141.465342977502	1867.75695527103	898.57289010877	179.486577121887	1949.88960871652	1356.97401930407	129.995349747749	2502.48771605965	901.57833852717	142	2025.84134054518	1056.01259816729	146.011749802608	1936.91989339271
827.782152461905	152.978753251928	1379.76509163263	1338.40091864904	216.332850237511	1967.15910487153	865.009625965378	175.007182726135	1537.57507972549	1425.02456841012	151.876872874622	1954.85345484225	1027.57638628376	164.257284255818	1905.01240499141	1181.6080890636	140.698054396982	1772.29316087222	1054.26193704586	141.001327222897	2048.43684764626	1213.42416034557	175.143386877018	1931.87040921878	829.252820850501	154.876872874622	1350.9016074126	1786.15301136496	190.386708027804	2645.55673782443	1036.94996337142	190.90024501174	1807.46117483799	1381.70992159031	141.474029153129	1867.74638757651	898.332167638025	179.572306884342	1948.29042723832	1356.9028204237	129.988250197392	2502.63734878255	901.180892555064	142	2024.78745586101	1055.7163003571	146.023779221956	1936.36883094197
828.283467406563	153.021246748072	1380.9809384153	1338.87298301925	216.44209736406	1968.1215589669	865.447111986762	175.07372000187	1538.95470688325	1425.82346324203	151.915063851928	1956.88799029291	1028.13991556177	164.344250268879	1906.64437631847	1182.45436895634	140.702616735854	1773.95664626146	1055.25229483894	141.004650252251	2050.56264866112	1214.22112450295	175.225790551206	1933.38650745476	829.639016756207	154.915063851928	1351.29757457623	1786.87612706266	190.465335111415	2646.58837895763	1037.17226894225	190.923573800959	1807.70590038085	1382.2113033778	141.478939155841	1868.40097547266	898.322057978538	179.660399983371	1947.44924979578	1357.0913887337	129.976220778044	2503.505195545	901.026413759727	142	2024.53968070965	1055.55071687123	146.04072345119	1936.22763669141
828.790567776724	153.060358759967	1382.61454104329	1339.35144197753	216.560557081733	1969.44735674783	865.912160858216	175.146622130936	1540.71310054078	1426.58566171576	151.947526746202	1959.27593411921	1028.74956905139	164.440770141163	1908.68257610661	1183.31208725502	140.723863483927	1775.9754422282	1056.29127903439	141.011749802608	2053.19290655333	1215.04628169415	175.326872762363	1935.27286566955	830.202506200594	154.947526746202	1352.13663835964	1787.8681522351	190.551064943443	2648.267384795	1037.55971916796	190.956570351639	1808.51252822249	1382.94065478627	141.481476436899	1869.59401672307	898.526028701369	179.745370189975	1947.1944735515	1357.52993748606	129.95927654881	2504.85628644646	901.095886287603	142	2024.88503815694	1055.51373903804	146.061156926116	1936.34364389903
829.243785393158	153.091445379741	1384.41599098475	1339.76973473225	216.679104712785	1970.91527676851	866.333807374629	175.21922275737	1542.56717173779	1427.22890537514	151.97289774869	1961.76342418599	1029.33437556009	164.54185235232	1910.89054417932	1184.10603537955	140.758413156949	1778.18320716403	1057.29247991406	141.023779221956	2056.08463332449	1215.82919622138	175.440770141164	1937.36904264047	830.899946361434	154.971570525793	1353.28927103874	1789.08137514475	190.638398417049	2650.4151748217	1038.06325316761	191.000783048522	1809.68718544685	1383.86710519046	141.485796111192	1871.21017731321	898.921844548682	179.822665313089	1947.33420866698	1358.21805791942	129.938843073884	2506.5051002662	901.36351767245	142	2025.61024772939	1055.61214043402	146.083730897085	1936.59538270497
829.607159964317	153.111360167316	1386.15245475202	1340.09172886189	216.791936726549	1972.32690743102	866.662756121563	175.286676330094	1544.25937768586	1427.72449458954	151.991573226746	1964.14235998929	1029.8382753942	164.642960755922	1913.03212648443	1184.78848725284	140.801166473127	1780.42124583631	1058.19119290234	141.042050674087	2058.99018399166	1216.5250813719	175.560557081734	1939.51322947385	831.679925975697	154.986922974495	1354.62601886067	1790.45638506532	190.721468996109	2652.87987613536	1038.62643361205	191.058450728946	1811.04444595429	1384.95128644787	141.494884227096	1873.16508191244	899.485080031384	179.893817103856	1947.6964273868	1359.16209041421	129.917596325812	2508.35951159888	901.802723047169	142	2026.54590577905	1055.86122742738	146.107059686304	1936.91887966908
829.874632081558	153.120996929158	1387.65360007919	1340.31946937105	216.898119622694	1973.54905766712	866.880959101363	175.347054679251	1545.6050893058	1428.11004202103	152.008426773254	1966.30668558066	1030.23301598546	164.738934416004	1914.90673946946	1185.34863900512	140.846444535045	1782.55047362313	1058.95862000129	141.065807178367	2061.70325994096	1217.1230385434	175.677777489888	1941.55895900339	832.488847923743	154.995349747749	1356.03306054129	1791.92232761503	190.796254363015	2655.53292466686	1039.19470261329	191.13163707441	1812.42538978689	1386.14224658454	141.512222178893	1875.38851050301	900.187437399005	179.96262229584	1948.15158309355	1360.36137696187	129.898917788843	2510.39801703865	902.384691611091	142	2027.57884623908	1056.27282926056	146.130297433659	1937.29642576119
830.063389916129	153.124861433113	1388.81903304368	1340.48607735341	217	1974.51617122431	866.997756461048	175.401526867991	1546.50540319284	1428.47338192341	152.028429474207	1968.2481616055	1030.51961865215	164.826682702592	1916.37349603801	1185.81305432694	140.889166851605	1784.46313745553	1059.60747738125	141.094153476797	2064.0869103639	1217.64415326891	175.785959251402	1943.386903363	833.276949299238	154.998672777103	1357.41989566818	1793.39891138101	190.859145596866	2658.25057250739	1039.72278503948	191.221140298956	1813.71108481073	1387.37348368203	141.536790277631	1877.79316347799	900.993415120302	180.035529024564	1948.62040189428	1361.78615034953	129.886102621199	2512.6276144998	903.072373793227	142.001327222897	2028.64578243667	1056.83925001443	146.155315965134	1937.73307075825
830.199059110586	153.127777377629	1389.62029181075	1340.636060513	217.101880377306	1975.23441316995	867.03387370044	175.453585308807	1546.94956139803	1428.91131882445	152.057123506049	1970.03479396116	1030.717859909	164.904171566894	1917.34556846674	1186.2213377056	140.925766048379	1786.07289254696	1060.17287126391	141.124861433113	2066.06147543334	1218.12046850822	175.880392344938	1944.89691986741	833.994852572541	155.001327222897	1358.70334188818	1794.78754818487	190.90908637678	2660.86746802131	1040.16885431555	191.325545539466	1814.80094932432	1388.55789622937	141.566417322572	1880.22883993872	901.854565964597	180.118280432165	1949.06361471719	1363.36069060695	129.881540282327	2515.02032561731	903.813857631034	142.005977475148	2029.70354021306	1057.52264193152	146.184377527094	1938.22507220847
830.299991504004	153.134063654841	1390.05846275405	1340.81106516289	217.208063273451	1975.73982285743	867.012166584306	175.506489406152	1546.9747164724	1429.48870309674	152.09668595068	1971.72575315224	1030.84691293018	164.970243302896	1917.77813612773	1186.59783352585	140.954626296559	1787.29269871486	1060.68993567426	141.15462082999	2067.58634020913	1218.57180052849	175.958493500288	1945.99670909438	834.59533425079	155.004650252251	1359.80043861044	1795.97553940423	190.946199523305	2663.16244131779	1040.49437950773	191.440770141163	1815.60341287602	1389.58884958309	141.597283746605	1882.46935175332	902.706759047592	180.214040748598	1949.43931423445	1364.95325733837	129.886102621199	2517.42744277707	904.536950920678	142.016400054859	2030.67245999899	1058.24634533566	146.220689866218	1938.70356027456
830.359839580649	153.146906347334	1390.12248227826	1341.02308763386	217.319568064319	1976.04999929882	866.936745569288	175.563897266542	1546.6224453336	1430.19176344702	152.146906347334	1973.29601412197	1030.90678669121	165.024300678655	1917.6307682797	1186.91778466098	140.974893555147	1787.9983477397	1061.1699260814	141.179616643789	2068.61842165925	1218.97957440411	176.018323203508	1946.56822651384	835.029909784091	155.011749802608	1360.6019970528	1796.83690635119	190.971570525793	2664.82441145053	1040.6609414519	191.559229858837	1816.00673156129	1390.34314960283	141.625047337026	1884.19763100509	903.478328535097	180.322222510112	1949.67986270982	1366.39437170014	129.898917788843	2519.54861436974	905.157826063774	142.036856247461	2031.40795435899	1058.90868428188	146.267470774205	1939.01562498439
830.333866641508	153.165584884303	1389.74304078044	1341.2366394086	217.433465443119	1976.12052661955	866.782465592346	175.626788500393	1545.89214973656	1430.9005863261	152.202962588463	1974.56780916743	1030.85782480857	165.06600361933	1916.83327766747	1187.08281675743	140.988250197392	1787.99734114884	1061.58141521214	141.196301052989	2069.08372935728	1219.26432172776	176.060026144182	1946.4498570697	835.244260138573	155.023779221956	1360.96191365421	1797.23022057382	190.985595751598	2665.45573803494	1040.6220016371	191.673127237637	1815.8630079952	1390.67934757095	141.644780939207	1885.02282955067	904.090648170079	180.439442918267	1949.67121199557	1367.48594743222	129.917596325812	2520.94919718194	905.581214164357	142.069152925397	2031.69000569054	1059.39006528079	146.325545539466	1938.93010814593
830.148341724537	153.186804107525	1388.7686811208	1341.37735251131	217.541502581081	1975.81499271001	866.500924694766	175.694106786823	1544.70990705608	1431.41155997193	152.257457979105	1975.18915012568	1030.6203423837	165.095104736009	1915.25752707803	1186.92571198185	140.995349747749	1787.01926853532	1061.85063917513	141.202164422313	2068.85319998086	1219.29112934746	176.082027710504	1945.4171211768	835.180887581436	155.04072345119	1360.69543511361	1797.01361683196	190.989372272602	2664.60663118474	1040.32825056492	191.774209448794	1814.99047278989	1390.45373066948	141.653927510008	1884.52515285777	904.467321281412	180.55790263594	1949.23973083773	1368.03072884295	129.938843073884	2521.09658446	905.714162702403	142.113630179914	2031.22640086333	1059.57154998045	146.393112443017	1938.1526560868
829.707652182709	153.205513644112	1386.97382756691	1341.33466488613	217.631620737925	1974.90856555206	866.023515195126	175.761386415063	1542.92406387288	1431.4673966674	152.301945603018	1974.67852852312	1030.08326860127	165.112570155904	1912.72812079919	1186.23648047716	140.998672777103	1784.74692904308	1061.87116630069	141.196301052989	2067.76070469782	1218.88613421292	176.0828134588	1943.21233858532	834.782812119353	155.061156926116	1359.59706349136	1796.06555181722	190.982272722244	2661.83719403834	1039.73545321606	191.856613122982	1813.19403074721	1389.53995550773	141.652068668532	1882.3208407183	904.544281878225	180.668476985386	1948.18103611976	1367.86314539798	129.95927654881	2519.47878565295	905.476519096387	142.167339822261	2029.71483751452	1059.35474751864	146.46419959188	1936.39996406085
828.918552264177	153.216306812854	1384.10825975847	1340.98778957317	217.690652274995	1973.13340902805	865.277643676818	175.823359673238	1540.33716010928	1430.82367592393	152.328876968758	1972.5334145184	1029.12796369002	165.118459717673	1909.0324875937	1184.81043795832	141	1780.8621691977	1061.52905943327	141.179616643789	2065.61520826841	1217.87621100007	176.060008988728	1939.56986323712	833.999550091458	155.082403674188	1357.47007065782	1794.29786081407	190.963143752539	2656.79306714712	1038.80644558136	191.917770049098	1810.2955895304	1387.84367401729	141.641200255742	1878.1276401918	904.272910097167	180.761132423289	1946.29501342825	1366.87096993539	129.976220778044	2515.70748200668	904.814319991906	142.224209336535	2026.90235576329	1058.67737384461	146.529473161733	1933.46041499991
827.712290183874	153.214979589957	1379.96954390005	1340.23185806764	217.707248770817	1970.25360720929	864.206002228861	175.871965571684	1536.76059544486	1429.30764491646	152.33343930763	1968.36972862769	1027.66011730779	165.113897378801	1903.98598273019	1182.51216364168	141	1775.14011006155	1060.73199438071	141.15462082999	2062.25768905699	1216.13514418423	176.011233952972	1934.29375559427	832.797874852762	155.101082211157	1354.16690648409	1791.68157496624	190.929519851706	2649.28029042519	1037.52461952562	191.958493500288	1806.17384661251	1385.32724010809	141.623709814307	1871.82521760733	903.627570527904	180.826856425878	1943.43052217664	1365.01566737066	129.988250197392	2509.61000452954	903.708375969909	142.276136516073	2022.64882922901	1057.52031932495	146.57817003247	1929.24895898068
826.061409242005	153.200863391861	1374.46540028878	1338.9955715087	217.674252220136	1966.12671006555	862.774556350908	175.902417600397	1532.06615493421	1426.85519374726	152.314760770662	1962.0297225495	1025.63432238516	165.101082211157	1897.49603633074	1179.31321088432	141	1767.53260099407	1059.43471920925	141.124861433113	2057.62049569936	1213.61912236357	175.936448586067	1927.32506280024	831.174572692579	155.113897378801	1349.63072371506	1788.26994405329	190.880392344938	2639.33549559828	1035.90389799439	191.982272722244	1800.80515238298	1382.0351259959	141.602923798794	1863.499885338	902.608210803688	180.859319320153	1939.52784090713	1362.33709007571	129.995349747749	2501.29560913441	902.177272923547	142.314760770662	2016.98339895717	1055.91321507489	146.600656090061	1923.85170700507
823.988232076839	153.175054304917	1367.66738563871	1337.25818966662	217.590114238213	1960.7631607398	860.984073915514	175.909343275844	1526.24156548814	1423.52849265499	152.276136516073	1953.65757555993	1023.06925869971	165.082403674188	1889.59865098352	1175.31328903748	141	1758.2077580365	1057.65518511153	141.094153476797	2051.75217987292	1210.38434708661	175.837934586014	1918.77430742773	829.157139724457	155.117132494776	1343.91366400429	1784.18623439656	190.814932899984	2627.22500766485	1033.9829038408	191.992695301955	1794.27153283892	1378.08473003256	141.579926919938	1853.43479650944	901.240245231531	180.85583007446	1934.63935861277	1358.95077236735	129.998672777103	2491.14064446798	900.279209712584	142.33343930763	2010.10621728604	1053.9273591165	146.590897286735	1917.51010475262
821.566253986113	153.141805662347	1359.82161989607	1335.05697733748	217.459272630179	1954.34270913183	858.871522618484	175.892686321921	1519.41230733172	1419.50711614471	152.224209336535	1943.7013205657	1020.05373555078	165.059829703219	1880.49177297026	1170.73336667996	140.998672777103	1747.56177823012	1055.47637284396	141.065807178367	2044.84298010721	1206.58527898802	175.721468996109	1908.93905288444	826.812654656502	155.10924712655	1337.19336435515	1779.62789640734	190.734284163753	2613.4529920586	1031.83207529459	191.994022524852	1786.77826323724	1373.67046827209	141.554667519964	1842.09973142246	899.574779052772	180.817639097154	1928.9271919125	1355.03198322842	130	2479.72637084727	898.104033329435	142.328876968758	2002.36415539131	1051.66454935906	146.550544286634	1910.5815032574
818.90760552036	153.106182896144	1351.32081340802	1332.48072570092	217.291405788998	1947.19334502536	856.505198179904	175.854495344615	1511.83377458084	1415.0501568504	152.167339822261	1932.83993441154	1016.73050410733	165.036073198939	1870.52574579596	1165.87269390716	140.995349747749	1736.17300421433	1053.0326864798	141.042050674087	2037.21181577674	1202.44749664407	175.595390971154	1898.27351733294	824.236339158976	155.089332408549	1329.74959204236	1774.83074822778	190.641633533025	2598.68511305489	1029.53797925696	191.988250197392	1778.61856089779	1369.03100289076	141.525717630092	1830.07886855621	897.682094802306	180.749553436678	1922.64465072805	1350.78966040646	130	2467.75093732498	895.759842148972	142.301945603018	1994.19922902347	1049.24081083773	146.484995907215	1903.47772496706
816.142885674996	153.072906728724	1342.63895115403	1329.65072121088	217.101082211157	1939.72906677743	853.972192406386	175.800904615266	1503.84885028271	1410.4406453825	152.113630179914	1921.85423298477	1013.27489442826	165.012029419348	1860.15083962378	1161.05406533314	140.988250197392	1724.69929330747	1050.48561214751	141.023779221956	2029.25606401981	1198.22488610452	175.469111701992	1887.31314481774	821.543001963011	155.058624452232	1321.931575657	1770.03856599038	190.54185235232	2583.66996796493	1027.19156817874	191.974893555147	1770.14058857578	1364.41531456048	141.492295043038	1818.00177735655	895.64587083497	180.658984847096	1916.08598472218	1346.44380102692	130	2455.89593251844	893.360702499063	142.257457979105	1986.06287154087	1046.7711992936	146.405819017434	1896.58070849277
813.404480188867	153.045373703441	1334.25025657789	1326.70612119759	216.903568041094	1932.37339600061	851.36899776756	175.739196273865	1495.82952992382	1405.94829301689	152.069152925397	1911.48744414839	1009.86284966967	164.987970580652	1849.84436876011	1156.5614189372	140.976220778044	1713.76015957719	1047.99407068912	141.011749802608	2021.38896188592	1194.15421747299	175.351437732615	1876.58321627767	818.846359835763	155.020433474926	1314.10485140159	1765.45827221068	190.440770141163	2569.11912519998	1024.87054884233	191.953299073663	1761.68841707461	1360.03936805737	141.454798425881	1806.44305825556	893.554506214531	180.554667519964	1909.54553167862	1342.19267300051	130	2444.73470635426	891.00988686241	142.202962588463	1978.34948805671	1044.35293336128	146.325545539466	1890.18498710824
810.805212259155	153.025106444853	1326.54763050162	1323.77689764372	216.714366538463	1925.47298839009	848.785915338188	175.678577693864	1488.10236686997	1401.78263757435	152.036856247461	1902.31442975907	1006.6407699361	164.963926801061	1840.04843209106	1152.59434138813	140.95927654881	1703.85441290838	1045.68705264156	141.004650252251	2013.9821141876	1190.41484779552	175.249119340425	1866.53079241491	816.253374248601	154.979566525074	1306.60819902184	1761.25325716843	190.344250268879	2555.63973101545	1022.63575162573	191.922443019025	1753.56376936284	1356.07204379899	141.416119691269	1795.87672282669	891.492338632935	180.445332480036	1903.27751477502	1338.19933120602	130	2434.68000427885	888.790910769434	142.146906347334	1971.35457411646	1042.05962850868	146.254764199788	1884.47127246946
808.435693759344	153.011749802608	1319.80125359471	1320.97611201368	216.546779314021	1919.26020301696	846.302071385376	175.628644642094	1480.91189109238	1398.09426277669	152.016400054859	1894.69007102346	1003.71301882582	164.940170296781	1831.103024828	1149.25110902581	140.938843073884	1695.28396116863	1043.6497276172	141.001327222897	2007.31147270844	1187.11478534478	175.165960847987	1857.45643380848	813.848719475329	154.941375547768	1299.71620048725	1757.52216866525	190.257284255818	2543.66954938317	1020.52222112483	191.88074007835	1745.99787066144	1352.61164325555	141.379067002845	1786.63126514624	889.536536449403	180.339687930007	1897.46502177773	1334.58330427079	130	2425.94612037025	886.765590771639	142.09668595068	1965.24053930395	1039.94153385979	146.199893550884	1879.49121749088
806.357313893925	153.004650252251	1314.12683752809	1318.38572996865	216.409102713265	1913.8156046694	843.979496707498	175.595644962928	1474.38395648148	1394.96690047179	152.005977475148	1888.70991243529	1001.13153285328	164.917596325812	1823.23093255932	1146.52842070919	140.917596325812	1688.14844206282	1041.92048061837	141	2001.55162384414	1184.28345058576	175.102663425828	1849.50620399495	811.695835956094	154.910667591451	1293.61902635984	1754.31114156839	190.183312162058	2533.45015831503	1018.54897431213	191.82843764055	1739.13786557618	1349.69175488674	141.346337047627	1778.87191974123	887.749273185401	180.244469088175	1892.21876980111	1331.41470959043	130	2418.57668801081	884.969263735723	142.057123506049	1960.05476936592	1038.02336727006	146.163306402193	1875.19416174987
804.605902884193	153.001327222897	1309.50768533468	1316.06041359003	216.304674755078	1909.09360944271	841.863148016291	175.584069104803	1468.53959532181	1392.43425113524	152.001327222897	1884.2617467246	998.90591199499	164.898917788843	1816.53374765428	1144.35326065584	140.898917788843	1682.37274817364	1040.50052480773	141	1996.77139515918	1181.89259304479	175.058450728946	1842.68002636502	809.836572221226	154.89075287345	1288.42080076196	1751.62492106625	190.1239101739	2525.04038181447	1016.72609188925	191.767822189035	1733.05651328885	1347.29479898853	141.319425478593	1772.61676249273	886.178420406772	180.165960847987	1887.58386582401	1328.7230324611	130	2412.48807053799	883.419624805663	142.029756697104	1955.7526833532	1036.31337994035	146.142588710868	1871.46649206201
803.196659399106	153	1305.84030068952	1314.02872855093	216.231768026354	1904.97545741301	839.982610058198	175.592326740748	1463.33238225199	1390.49498352501	152	1881.10307094418	997.020750252977	164.8861026212	1811.01838109449	1142.62076547275	140.8861026212	1677.76915025581	1039.3707194992	141	1992.96406917425	1179.88194472138	175.029756697104	1836.8774784818	808.297372518619	154.882867505224	1284.14820981079	1749.45107903746	190.077556980975	2518.34688176376	1015.06761919583	191.702450657458	1727.77009254239	1345.37640224298	141.298443288156	1767.76174694683	884.855798422502	180.107313678079	1883.55637712255	1326.50361582903	130	2407.51513575261	882.120312670098	142.013077025505	1952.23352190968	1034.80647355647	146.131624656556	1868.16820445992
802.126914107463	153	1302.98607719398	1312.29797988806	216.185966607852	1901.32722895324	838.355740371964	175.616086303941	1458.69209914499	1389.12449759449	152	1878.94895864266	995.4521426649	164.881540282327	1806.63728350665	1141.23027252044	140.881540282327	1674.11522555802	1038.50844153615	141	1990.08188785542	1178.1881170299	175.013077025505	1831.95392646539	807.089207557198	154.8861026212	1280.76717099081	1747.76291385338	190.042050674087	2513.16920424659	1013.59435713023	191.638114062708	1723.25552314222	1343.87770095325	141.281584934474	1764.11538260501	883.796897122877	180.070200531554	1880.10392431382	1324.72532889668	130	2403.46008695033	881.064379066366	142.004650252251	1949.37442223998	1033.48774190112	146.124437192821	1865.16828630832
801.377837965986	153	1300.82161973026	1310.85616509682	216.160054130763	1898.05616560165	836.986536999531	175.647611008172	1454.56731112908	1388.27077634157	152	1877.54755862091	994.178150637082	164.8861026212	1803.30758264831	1140.10742567195	140.8861026212	1671.20786520427	1037.89131682439	141	1988.04383336316	1176.76038814815	175.004650252251	1827.76065152147	806.209963258719	154.898917788843	1278.19391073271	1746.53571313232	190.013356642245	2509.2381747217	1012.33426026234	191.58205782158	1719.45783274449	1342.74866431243	141.266693287904	1761.4356774304	883.001772213923	180.05353591906	1877.17892888775	1323.34639706546	130	2400.13452391424	880.242810479406	142.001327222897	1947.05492468717	1032.34332614575	146.115224601697	1862.37253503496
800.916878224633	153	1299.26266770705	1309.68079392126	216.147936798037	1895.13977412596	835.868689421281	175.679104712785	1450.94294797474	1387.86018987936	152	1876.71431615634	993.179898024617	164.898917788843	1800.93382562547	1139.20823277466	140.898917788843	1668.89965986256	1037.49437829974	141	1986.74647071181	1175.56583412356	175.001327222897	1824.17696044501	805.644386564305	154.917596325812	1276.31765898719	1745.7411617278	189.987970580652	2506.27662912203	1011.31474768406	191.541678629033	1716.30848289188	1341.94968047087	141.250508614521	1759.48044938376	882.456475115747	180.055127699592	1874.71865996432	1322.32109687271	130	2397.38074245013	879.642358396198	142.001327222897	1945.16532739508	1031.3627149448	146.101082211157	1859.73431803047
800.7054001089	153	1298.26250777084	1308.74464094834	216.143654075904	1892.61488892541	834.987656419808	175.70488280011	1447.83338817805	1387.80635915944	152	1876.33402631571	992.440013405597	164.917596325812	1799.39952339431	1138.5107010981	140.917596325812	1667.09364393887	1037.28291673299	141	1986.04779297886	1174.58758949552	175	1821.10623220469	805.361473410743	154.938843073884	1275.00295598908	1745.34173598029	189.963926801061	2504.00722078822	1010.55203021219	191.523000092065	1713.71574090889	1341.44942963246	141.232706867713	1758.01625265109	882.134512204472	180.070457430618	1872.65219660918	1321.60772407315	130	2395.07531040389	879.248671441134	142.004650252251	1943.60936849363	1030.54227915574	146.082403674188	1857.24975448397
800.699723387528	153	1297.79810634261	1308.01966741553	216.143132885243	1890.55606681175	834.321439295262	175.722803459916	1445.26741472278	1388.01371760318	152	1876.34404975323	991.938859677733	164.938843073884	1798.57295109448	1138.00340539553	140.938843073884	1665.72500043404	1037.21004962921	141	1985.77949075033	1173.81396584876	175	1818.47363751875	805.314889415468	154.95927654881	1274.10658932774	1745.28163360599	189.940170296781	2502.18181358729	1010.04022929761	191.529317368896	1711.57278224357	1341.2135591148	141.212818342157	1756.84673369179	881.998933230698	180.09680792259	1870.89826735071	1321.16689829072	130	2393.12660463577	879.042430729693	142.011749802608	1942.30012143096	1029.88306975126	146.061156926116	1854.94300416895
800.858329995886	153	1297.84309784984	1307.4826718531	216.143560600305	1889.03305441188	833.844663900261	175.734546021615	1443.26022069625	1388.39290609768	152	1876.70324494156	991.651235261754	164.95927654881	1798.29154512731	1137.67155798285	140.95927654881	1664.72693942276	1037.21950596166	141	1985.74117951815	1173.23271197196	175	1816.19817359193	805.445209941911	154.976220778044	1273.48443270764	1745.48426299161	189.917596325812	2500.59084435314	1009.75017612816	191.560377796225	1709.76211300474	1341.20049076546	141.192781582672	1755.82060879079	882.005596207647	180.129511685363	1869.36499152869	1320.9626176193	130	2391.45644014004	878.999302285545	142.023779221956	1941.15000721359	1029.38625640846	146.04072345119	1852.83958318819
801.142645271517	153	1298.34585093443	1307.11168334423	216.143560600305	1888.07554237368	833.528499868031	175.743601823709	1441.79114635598	1388.86678994617	152	1877.36816360105	991.545750803951	164.976220778044	1798.38261757753	1137.49091533542	140.976220778044	1664.02421925396	1037.25336545024	141	1985.73762006436	1172.82268548617	175	1814.19843304721	805.684229581263	154.988250197392	1273.00388107323	1745.85549397676	189.898917788843	2499.07128513594	1009.6311223616	191.612332500614	1708.16417009656	1341.35887899437	141.178661909808	1754.84130016874	882.111667835685	180.166370632599	1867.96679871703	1320.96530211429	130	2390.01446205626	879.091047568302	142.04072345119	1940.0842341315	1029.04949440942	146.023779221956	1850.96301733067
801.522165148907	153	1299.22636616586	1306.89338394172	216.141805662347	1887.66020671154	833.344844779734	175.75580518754	1440.80096582122	1389.38898060353	152	1878.29160725245	991.587198789316	164.988250197392	1798.65923535347	1137.42885075242	140.988250197392	1663.51610694701	1037.26545656372	141	1985.58943763039	1172.55645440677	175	1812.37819784258	805.960557627394	154.995349747749	1272.55291192713	1746.29133175277	189.8861026212	2497.51784216188	1009.61713712063	191.678489780486	1706.67291620497	1341.630160714	141.176663044438	1753.87157844415	882.275652262409	180.203395865745	1866.63075402947	1321.14880758524	130	2388.773426861	879.286812994898	142.061156926116	1939.04057274051	1028.86530645042	146.011749802608	1849.3202247998
