Light	Light	Light	Light	Light	Light	Light	Light	Light	Light	Light	Light	Light	Light	Light	Light	Light	Light	Light	Light	Light	Light	Light	Light	Light	Light	Light	Light	Light	Light	Light	Light	Light	Light	Light	Light	Light	Light	Light	Light	Light	Light	Light	Light	Light	Light	Light	Light
Optode1-730nm	Optode1-Ambient	Optode1-850nm	Optode2-730nm	Optode2-Ambient	Optode2-850nm	Optode3-730nm	Optode3-Ambient	Optode3-850nm	Optode4-730nm	Optode4-Ambient	Optode4-850nm	Optode5-730nm	Optode5-Ambient	Optode5-850nm	Optode6-730nm	Optode6-Ambient	Optode6-850nm	Optode7-730nm	Optode7-Ambient	Optode7-850nm	Optode8-730nm	Optode8-Ambient	Optode8-850nm	Optode9-730nm	Optode9-Ambient	Optode9-850nm	Optode10-730nm	Optode10-Ambient	Optode10-850nm	Optode11-730nm	Optode11-Ambient	Optode11-850nm	Optode12-730nm	Optode12-Ambient	Optode12-850nm	Optode13-730nm	Optode13-Ambient	Optode13-850nm	Optode14-730nm	Optode14-Ambient	Optode14-850nm	Optode15-730nm	Optode15-Ambient	Optode15-850nm	Optode16-730nm	Optode16-Ambient	Optode16-850nm
541.890960959539	142.082403674188	892.550591518771	866.08871177355	256.053033806807	1094.85307481569	598.55215910906	151.957949325913	867.642379024862	1252.97151710706	165.855285900085	1561.08058196908	1208.01091332772	141.250508614521	2095.04445314221	1108.41790837234	154.434792666016	1574.76479581651	487.517697304574	136	722.698885027807	1158.54271894097	175.951717858991	1537.83043888569	643.70056659495	149.593265582107	884.012062812958	965.679733959452	190.529897402025	1205.95811250355	1161.12872912909	190.696629750143	1893.5742361098	1275.39713776303	149.500345852608	1575.33459462982	955.345807573732	179.433582677428	1840.36322404581	1228.26216149036	138.064502673146	2156.55555361025	813.824686716201	221.713238663818	1542.01462231954	1077.0117599225	142	1699.14300777383
541.369603399098	142.101082211157	891.550776137842	865.380020979264	255.703287919917	1093.94403695273	597.924009282397	151.934192821633	866.423158608174	1251.16660765268	165.768231973646	1558.7083685989	1207.37143919704	141.231379644816	2093.59789587391	1106.5700349184	154.319568064318	1571.87683053266	487.170461173893	136	721.575996456941	1155.57643513789	175.798960560186	1533.3485669322	643.214877659991	149.58676288412	882.784342003036	964.914690984535	190.421715640511	1203.3853317198	1161.03855936235	190.632947960822	1892.63427282465	1275.00210710007	149.461747790465	1573.11315415474	954.880547736063	179.333710454859	1838.09531777329	1226.75619161555	138.035529024564	2151.28330623549	813.766743832861	221.678899565098	1540.68534242482	1076.50553032212	142	1696.45508670631
540.663751364483	142.1138973788	890.05435696085	864.388187819273	255.272878307266	1092.5270715054	597.126027807715	151.904519300307	864.781037731412	1248.93103282291	165.655399959881	1555.50773641882	1206.41394799217	141.206840867009	2091.04435322517	1104.18057849602	154.208063273451	1567.72060517833	486.685802482121	136	720.024400651262	1151.89598188241	175.620930959328	1527.23416973901	642.620121431522	149.574175222701	881.187328710141	963.867832124655	190.302743769168	1200.32349393941	1160.78997088631	190.540175358184	1891.08689050627	1274.35562710122	149.413576917563	1570.41746418235	954.172587148221	179.23716439013	1835.40721226292	1224.98551271332	138.015072831962	2145.49051892327	813.482523943346	221.626921171573	1538.90666292135	1075.79380826132	141.998672777103	1693.33334551947
539.824691795971	142.118459717673	888.170900002327	863.182510988909	254.785603917941	1090.70762479703	596.218512818457	151.870488314637	862.84923075242	1246.39340280031	165.519050582022	1551.67923962221	1205.2511302809	141.176381527814	2087.67421771917	1101.45412989902	154.103207600203	1562.63491204812	486.097453551261	136	718.156144773226	1147.83083486887	175.429020338555	1519.97055590266	641.942936507324	149.561329055438	879.312168183696	962.588456106072	190.175054304917	1196.94351342563	1160.41692641959	190.428815190868	1889.07514450823	1273.47566898805	149.364138794436	1567.38540169366	953.305602936623	179.146906347334	1832.63725950477	1223.07786225506	138	2139.69605606769	813.037232654582	221.56702071043	1536.96417772556	1074.9541519969	141.994022524852	1690.10340911794
538.910029769906	142.1138973788	886.040366075952	861.842496687282	254.26709481052	1088.62284220045	595.26658476032	151.833629367401	860.779457036719	1243.69446535745	165.363190442512	1547.46744073926	1204.00426555302	141.141805662347	2083.86997304103	1098.61472361113	154.004650252251	1557.04680774389	485.44680966751	136	716.119471414206	1143.73260401663	175.235414964768	1512.1621706787	641.218570435302	149.552725364769	877.277938299286	961.146758019725	190.03992528504	1193.42201357025	1159.96407220041	190.30781826171	1886.77761367196	1272.4026258907	149.319661539918	1564.16638374959	952.363941154597	179.059829703219	1830.07102343367	1221.14932808735	137.983599945141	2134.32988567807	812.498615842186	221.500674313436	1535.10448689019	1074.0635728667	141.982272722244	1687.05329059369
537.974216571649	142.101082211157	883.808118107365	860.446306269357	253.739904730556	1086.40762997078	594.3312219948	151.795276911358	858.715830657991	1240.96786054872	165.195235687953	1543.11639797466	1202.78616023433	141.106182896144	2080.03900932486	1095.87216722056	153.909869425302	1551.4013353255	484.778418778872	136	714.073451279479	1139.92840084985	175.051929079423	1504.44847382455	640.48541909131	149.550188153284	875.21734847361	959.623616393718	189.896792399797	1189.92739808373	1159.47395634636	190.184284051494	1884.38149074253	1271.1919529166	149.283093342763	1560.91210855569	951.419909719561	178.971570525793	1827.87889169317	1219.28888118113	137.959820723185	2129.64940446686	811.919176541612	221.423493562183	1533.47454750134	1073.17987196136	141.959820723185	1684.36305165836
537.064691089327	142.081076451291	881.602888907135	859.057264419372	253.222345549943	1084.16976182832	593.464296857127	151.756998020674	856.774907498757	1238.32803664121	165.023779221956	1538.8287494758	1201.68769653091	141.072906728724	2076.54727052648	1093.39176692424	153.815715948506	1546.09451399817	484.135612776898	136	712.164431298588	1136.67374620899	174.886994262949	1497.41425441292	639.782902858258	149.550365001126	873.258636595434	958.106820558995	189.746033966361	1186.61272279972	1158.98516468371	190.061156926116	1882.05828677914	1269.91532526425	149.253938508789	1557.7673151126	950.520763601117	178.873292794581	1826.09308484089	1217.54378272944	137.922420301349	2125.70292532014	811.324511199844	221.323197306838	1532.0944321984	1072.3280364696	141.922420301349	1682.06987309717
536.217984917616	142.056506673866	879.522956296825	857.72094231282	252.723334427179	1081.9692597667	592.703078248774	151.718951373815	855.030868301358	1235.86245586961	164.857237565845	1534.74059273661	1200.76501947198	141.045373703441	2073.66860952733	1091.27625276512	153.719828163974	1541.42484895176	483.553005439918	136	710.505063335538	1134.12572675942	174.744667409941	1491.51768186509	639.145431434901	149.547480056228	871.50948036418	956.679631007695	189.588203507418	1183.61179787094	1158.5221332364	189.938843073884	1879.94685730074	1268.64719134769	149.230186811682	1554.86685746268	949.688637390131	178.758857000092	1824.62259942131	1215.91961966819	137.86836292559	2122.34975644194	810.711665059826	221.188051061934	1530.87096141004	1071.49879574129	141.869690148487	1680.07225301134
535.456334340827	142.028973648582	877.633112913034	856.455267728123	252.243141865278	1079.82132091666	592.064182667586	151.679788773111	853.517173251391	1233.62066037821	164.702616735855	1530.92442140359	1200.04279699976	141.023779221956	2071.56144831626	1089.56581699887	153.620386784953	1537.57414177847	483.055833693722	135.998672777103	709.164717207384	1132.33762811874	174.624510018283	1487.05123270061	638.59745555757	149.536430126365	870.042651162213	955.41621652013	189.425697309202	1181.04236708183	1158.09973282082	189.815715948505	1878.14622605922	1267.46217554271	149.208592330198	1552.33304157369	948.93044967812	178.623977013193	1823.30510754374	1214.40152926227	137.79798867075	2119.33317381794	810.06458075401	221.010418631369	1529.6463844548	1070.66488383528	141.802638923	1678.17745314894
534.790235846832	142	875.965893777259	855.255819416625	251.77500965277	1077.7022873865	591.545587473149	151.638398417049	852.230983132816	1231.6167188531	164.564680315064	1527.39576264727	1199.51143232656	141.005772327461	2070.25742575811	1088.24258267779	153.518523563101	1534.60685662086	482.654743231499	135.995349747749	708.162209385199	1131.26532414108	174.522108450316	1484.1226805802	638.149403436038	149.51216641314	868.893014870021	954.375436244352	189.262370089217	1179.01205179667	1157.71987091018	189.690854515393	1876.72087535979	1266.42220380248	149.186804107525	1550.28107801783	948.253770763118	178.469643458514	1821.97722638066	1212.97431041385	137.713850688827	2116.38360341222	809.36997050961	220.792995235953	1528.26734200524	1069.80031807106	141.725600491435	1676.17468391241
534.220501328551	141.972353574315	874.535009347083	854.099885666894	251.307923078166	1075.57283341513	591.130106462256	151.594072389339	851.147749307642	1229.84151635262	164.445682251275	1524.146480031	1199.14175142971	140.986922974495	2069.69425737458	1087.25888844696	153.414877948015	1532.50771465349	482.346927669563	135.988250197392	707.477331096385	1130.79924034872	174.429020338555	1482.68785597105	637.797409111194	149.474293710764	868.049335475641	953.596720989441	189.103453981298	1177.60794126161	1157.37812334368	189.563880111087	1875.69470882847	1265.57359974444	149.163833421114	1548.80351657967	947.671367173653	178.29991573803	1820.5343939727	1211.63973849309	137.620386784953	2113.31481270057	808.631736031993	220.548603982531	1526.64481848444	1068.89375634997	141.644166006909	1673.90685241351
533.746291754394	141.948143578385	873.349905473988	852.960903355823	250.830379795745	1073.40250022715	590.794555678114	151.548615575764	850.24218250794	1228.27702120019	164.345665405154	1521.17628414126	1198.90397596611	140.961147946082	2069.74758389041	1086.5674614675	153.3112584558	1531.21907348556	482.121749350881	135.976220778044	707.062067674122	1130.80430849242	174.335564696677	1482.58446043672	637.523708671534	149.424803363587	867.468754637049	953.100373138996	188.95577979617	1176.89467280546	1157.06910391991	189.436119888913	1875.06813068639	1264.94686487365	149.139003823654	1547.97203784586	947.218117332929	178.124454348275	1818.98308528048	1210.43831392393	137.524501038249	2110.10720649015	807.884705573217	220.300908533897	1524.80383274874	1067.97017347781	141.563897266542	1671.33844245065
533.369744669636	141.930673351317	872.422764316424	851.814813739995	250.334766530527	1071.18705227675	590.519495851524	151.505255658855	849.496541439521	1226.9116859018	164.263173817588	1518.51017091286	1198.77401428208	140.923747524246	2070.26237407994	1086.13863563588	153.208046117996	1530.67162650443	481.961951901035	135.95927654881	706.855479484676	1131.14931855885	174.232357096474	1483.57883646696	637.301345966137	149.369333221061	867.086861770743	952.886528783469	188.824510113935	1176.90207212452	1156.78986728105	189.309145484607	1874.82009098591	1264.55387608297	149.112832013765	1547.82369425972	946.937797211914	177.951909799566	1817.43607201485	1209.44233072459	137.43260522577	2106.92366664948	807.187502522798	220.077304237769	1522.87952999795	1067.08212830014	141.489111899636	1668.57039840591
533.100973941977	141.922697010799	871.779710894088	850.656210276945	249.819235418822	1068.96247556797	590.298408239461	151.468592945067	848.916473698095	1225.75864602395	164.196127329702	1516.21695290913	1198.74649430865	140.873013177841	2071.08135155911	1085.97596385623	153.105213706482	1530.80175623026	481.853280775436	135.938843073884	706.797181489655	1131.73293211122	174.113099212651	1485.399499679	637.105503745823	149.313795736858	866.834223877356	952.9353611346	188.713039315566	1177.60306633078	1156.54296313754	189.184284051495	1874.90526551815	1264.39358259912	149.087053926439	1548.34212271869	946.870111775839	177.792207873778	1816.07941346323	1208.73405565142	137.352764955512	2104.06430321972	806.605595391144	219.901476173698	1521.08008385803	1066.29524465555	141.423418827092	1665.81634687586
532.956022971532	141.926826072389	871.454225858876	849.493641001058	249.287886318682	1066.80084134654	590.138359019604	151.443302615047	848.527102821921	1224.84672352912	164.141261487972	1514.39514165969	1198.83250095797	140.809738473358	2072.06904307472	1086.11057213285	153.001734307735	1531.5558230386	481.787693862383	135.917596325812	706.838503925509	1132.49217979635	173.975422611894	1487.7725048052	636.92044906366	149.262820521954	866.656694560727	953.211196304616	188.621186988929	1178.91119540933	1156.3408490403	189.061156926116	1875.26802643574	1264.45445783794	149.062484149013	1549.45781044104	947.037259006209	177.652423864051	1815.11224328632	1208.38691502794	137.290276068898	2101.88557441335	806.192651385122	219.784660812555	1519.62575575111	1065.67289234641	141.367579058098	1663.34780289188
532.951625956008	141.942697208443	871.470639938857	848.35139283687	248.748164162582	1064.79284510114	590.05540945343	151.430870918036	848.363496035723	1224.21431623072	164.094153476797	1513.14436048975	1199.04422331988	140.737629910783	2073.10712600424	1086.57371380332	152.896385314959	1532.8640018618	481.761272612487	135.898917788843	706.943283882036	1133.3827244287	173.821338090192	1490.42558817824	636.746187362671	149.219362643322	866.525817109102	953.660752979729	188.54398254854	1180.67212912642	1156.20013017176	188.938843073884	1875.8352081665	1264.71264272563	149.04072345119	1551.03886755636	947.426989236458	177.535815259709	1814.68635506657	1208.43548595531	137.2486005835	2100.69984926025	805.968626141269	219.717252135576	1518.68255953902	1065.25308286893	141.321774511111	1661.42269718769
533.09664049226	141.968506295388	871.831237073838	847.260178335319	248.210717719244	1063.02342378696	590.068791826177	151.431037134375	848.452829899036	1223.8904616702	164.049407123508	1512.53070042492	1199.38644228024	140.661110236143	2074.09890747704	1087.3728157269	152.788603397373	1534.62484519724	481.777650891452	135.8861026212	707.08811395045	1134.36333186803	173.656459983892	1493.09495616074	636.598128764296	149.184377527094	866.439590973552	954.213664201437	188.473497593073	1182.67091987791	1156.13268517409	188.814388725609	1876.51796348626	1265.12795219079	149.022451999059	1552.89758161221	947.988145839346	177.44181300972	1814.85197499894	1208.85932868039	137.227524858941	2100.6757831756	805.909532782703	219.670809118757	1518.30778654767	1065.03892315854	141.284827650498	1660.21726828213
533.386050474801	142	872.498480987651	846.248308457146	247.685239229338	1061.55088102097	590.189684004913	151.440770141163	848.801038615678	1223.87957173512	164.000544174375	1512.55904136806	1199.84493003463	140.584330741468	2074.96089745007	1088.47246023217	152.677794645342	1536.69133204164	481.840831148875	135.88021305943	707.257615020511	1135.37737964117	173.487545536554	1495.53412320003	636.502667119941	149.153988742237	866.418661295826	954.790572654973	188.399696918734	1184.65971643212	1156.14337014551	188.684877040245	1877.21758780992	1265.6467905483	149.005772327461	1554.81075181222	948.6352788168	177.36558493033	1815.54825891722	1209.57486695352	137.223258077322	2101.79531346932	805.95014013989	219.601333073558	1518.44002510108	1064.99404136463	141.254751781934	1659.7904955833
533.797614258881	142.031493704612	873.393368997062	845.335423646359	247.181033679949	1060.39115170503	590.417044272025	151.455065486825	849.382616901227	1224.15255077036	163.942876493951	1513.15536331003	1200.38106144902	140.510358647708	2075.6312744358	1089.78479601238	152.565543660898	1538.87735348234	481.953080454631	135.880125146052	707.44097899998	1136.34393864738	173.320895287215	1497.52810537288	636.487298592783	149.125647181409	866.489511691623	955.308343794849	188.313005832704	1186.39011010644	1156.22310233411	188.547480056228	1877.83309690724	1266.20236438767	148.986922974495	1556.54904633153	949.267707135197	177.300177595891	1816.62149825958	1210.45744183529	137.229373538537	2103.85211057329	806.002281452726	219.461104943579	1518.92049662536	1065.05985315015	141.229373538537	1660.07976857343
534.291432268282	142.058630014454	874.406740202746	844.530595560991	246.70605423017	1059.52003788739	590.733783624117	151.469374093704	850.14406585616	1224.65003852976	163.874340400738	1514.18425344589	1200.93903262105	140.44209736406	2076.06999387153	1091.18025008911	152.453585308807	1540.98178144094	482.110766290022	135.881190511088	707.629562880269	1137.16826903548	173.159960655163	1498.91890372552	636.571291743638	149.093982660799	866.673801508924	955.697285399722	188.205749843379	1187.66111375232	1156.35095406243	188.400590864349	1878.27931728121	1266.72696579748	148.959820723185	1557.91941287036	949.791584734057	177.237024504179	1817.87137103725	1211.36109691155	137.238351727076	2106.50538209868	805.978840591561	219.21331282605	1519.54167954678	1065.16818249093	141.206858022464	1660.93200612393
534.819213456194	142.077824179861	875.425186856826	843.835155074725	246.266533008943	1058.89449535751	591.111342142399	151.477616740118	851.022432755691	1225.29466242319	163.795259755903	1515.48772019346	1201.46411324186	140.381721448639	2076.28317708388	1092.52447992819	152.343799836142	1542.83492939974	482.306798095666	135.8760898261	707.820665795503	1137.77394546662	173.005977475148	1499.64278524812	636.762065171573	149.055301422879	866.980847144713	955.915644096938	188.076531015496	1188.36423643843	1156.50581025583	188.245970034358	1878.51226447823	1267.16822351141	148.919097271995	1558.81013334795	950.140379697346	177.167866841181	1819.10507998447	1212.15154474349	137.243321150786	2109.35954404285	805.819688688355	218.842119850576	1520.10989154216	1065.26381745281	141.186018359229	1662.14819373034
535.33170308938	142.089052791809	876.352914415917	843.251500399472	245.870237422523	1058.47188688259	591.516946237349	151.477349679174	851.957396688637	1226.01411392798	163.709983485098	1516.9231603544	1201.91722104234	140.332314325131	2076.33482154343	1093.7072370132	152.239134775598	1544.34099440081	482.532026679991	135.857940345879	708.022415477457	1138.13142403723	172.859093845489	1499.76022580808	637.054013461644	149.008683672318	867.408381342078	955.966576255725	187.929724999393	1188.50709727852	1156.67493837455	188.088381149336	1878.5402347251	1267.50580629207	148.861263375233	1559.21376277866	950.292740917458	177.086795127491	1820.19616697535	1212.73595798327	137.239544560209	2112.06700427995	805.508267781451	218.358875268607	1520.50504335056	1065.32017252919	141.166370632599	1663.54613528589
535.789654700078	142.094433093536	877.14091241645	842.789940215963	245.525486327168	1058.2364506948	591.920166791988	151.466050309303	852.912261410644	1226.75756492826	163.625059754879	1518.40831355975	1202.29045779531	140.297992589381	2076.35721891445	1094.67654587669	152.143915933765	1545.51370904109	482.77959099819	135.82186714694	708.25934666478	1138.28329712096	172.720611212496	1499.46966781247	637.434045102384	148.955787303118	867.953571061068	955.900407910299	187.776684609079	1188.22802604867	1156.86464020396	187.935323603567	1878.44996542354	1267.76185867434	148.787286474299	1559.24786359784	950.277985096398	176.992102283493	1821.1107627421	1213.08443069543	137.225519403977	2114.4040895218	805.081479198969	217.796306114392	1520.70880815905	1065.34924325544	141.14688919188	1665.00468529597
536.17279847089	142.097230125055	877.790691579826	842.475935479707	245.242483888327	1058.20767175351	592.30454987232	151.444549431514	853.877871447318	1227.51532450657	163.548627993617	1519.93520993837	1202.61126091041	140.282115891106	2076.54003133081	1095.44996425603	152.063100981196	1546.48052825384	483.048386957464	135.766830281696	708.574402628219	1138.3459698389	172.594684414348	1499.08570892543	637.889935085746	148.901979319475	868.622087198999	955.809297854432	187.635072549979	1187.76451209096	1157.10434628543	187.796863688251	1878.38762849299	1268.00035563671	148.702883934741	1559.12765634431	950.169944511029	176.887417426243	1821.91366853769	1213.23488456199	137.203605751033	2116.31271356148	804.620396031284	217.203145822314	1520.81130947957	1065.39955375219	141.126974404306	1666.48974188704
536.485028065862	142.100553154409	878.352472450051	842.350155206729	245.032434097787	1058.43826119843	592.67000935597	151.414611282979	854.872238422332	1228.32303560759	163.488160640423	1521.56645200221	1202.93732379417	140.286947477323	2077.09596870804	1096.11194805936	152.001581214671	1547.4542460305	483.343473157735	135.69823368249	709.023717666376	1138.49339271244	172.488254116023	1498.98170922037	638.415211622094	148.854160917586	869.433325204105	955.809933659852	187.52325408384	1187.40780072452	1157.44271176551	187.68296630945	1878.54282409477	1268.31643146594	148.617680587782	1559.12304939417	950.067312868689	176.780440915716	1822.7524508543	1213.27983147693	137.178639192132	2117.90877176368	804.231977314755	216.630343343452	1520.9903985962	1065.54294163961	141.105732463407	1668.05952870374
536.751746108879	142.107510119041	878.914806142853	842.461331385167	244.906154828625	1059.0028777518	593.034123857846	151.379525301669	855.934739112354	1229.24901531096	163.450782936263	1523.41753547935	1203.34316607781	140.311270873654	2078.21679919449	1096.79166311949	151.963682319851	1548.68180077056	483.677472995305	135.625059754879	709.666536244112	1138.92347988592	172.410429936162	1499.51587464653	639.011983467406	148.82009900187	870.42018992412	956.014446738742	187.456729273849	1187.44064245204	1157.93537632414	187.601884295937	1879.10781341051	1268.81122812068	148.543433566991	1559.50169904693	950.074856824403	176.683510483825	1823.81190190861	1213.346766717	137.158656149942	2119.43155396113	804.027054077971	216.122880181608	1521.46601060406	1065.85793693034	141.083730897085	1669.83497346314
537.011629730583	142.117482266015	879.581069780993	842.854068811066	244.872452624832	1059.97763803532	593.424081803589	151.343540016108	857.114654986804	1230.37423519885	163.440596417877	1525.6224039057	1203.9008769855	140.351196158694	2080.0236213284	1097.62842278058	151.950693207724	1550.38150609693	484.063369428651	135.557723350432	710.549627511173	1139.81384852786	172.369177428224	1500.95147543546	639.688932615313	148.805564516023	871.615989767161	956.506867694941	187.443960095356	1188.07789312685	1158.63228122879	187.558640788717	1880.23296808613	1269.56829181994	148.490179164556	1560.46572781585	950.283312877829	176.607936240138	1825.2686167596	1213.57078633304	137.149438821218	2121.17716979481	804.09933983153	215.712108311469	1522.45040199181	1066.41250614678	141.061156926116	1671.96036845817
537.306332338687	142.130297433659	880.441838995921	843.555212875851	244.935343858683	1061.41302813273	593.865909930936	151.310263848688	858.449841070473	1231.76153353429	163.457973924393	1528.28609109371	1204.6616455707	140.400046689974	2082.53439846378	1098.7435348362	151.961663795718	1552.6896595526	484.512284688502	135.507289610129	711.694440372701	1141.2866095279	172.369177428224	1503.39725479094	640.453138024523	148.814255916486	873.0380551239	957.319279344432	187.483336664886	1189.41685129783	1159.5579489944	187.553990536466	1881.98608727353	1270.62734704615	148.46560938713	1562.10488175925	950.745605410149	176.564413116177	1827.25381402411	1214.05711154524	137.154353631104	2123.42624211977	804.501509872723	215.415891754045	1524.10692059025	1067.23991729863	141.04072345119	1674.56350178321
537.666220101429	142.143566162526	881.554820718856	844.563637043798	245.092444986399	1063.32106569248	594.374093315108	151.283093342763	859.956325431847	1233.43154672473	163.499654147392	1531.4589346621	1205.6459896627	140.449970314433	2085.63597194062	1100.21033708614	151.99194919043	1555.61607090811	485.027316909561	135.479756584845	713.081139551887	1143.37956861521	172.409102713265	1506.77187313713	641.299221713512	148.846265249537	874.667765440104	958.415780448168	187.565028048476	1191.40877448648	1160.69795649059	187.582829795284	1884.31737616181	1271.96605651483	148.46999778152	1564.36254201779	951.470629306015	176.555986342923	1829.81236446527	1214.86383628563	137.171990074511	2126.36263841959	805.241222371332	215.235474906279	1526.50798553653	1068.33366477466	141.023779221956	1677.70903931152
538.101715409536	142.15462082999	882.923312323428	845.843005310148	245.334257728895	1065.65530551536	594.942785995234	151.264663422916	861.609382004435	1235.34541958717	163.558252407179	1535.09750051439	1206.82882433006	140.49482066129	2089.10511807591	1102.03534195396	152.037733037621	1559.04667247202	485.597925344922	135.477974122037	714.647936093502	1146.02578836791	172.482276640875	1510.81448648545	642.200036788825	148.897852423808	876.440800162712	959.700154862905	187.671390230129	1193.86252827551	1161.99420669776	187.636809557488	1887.06015411766	1273.49867450092	148.497805733834	1567.04286281696	952.419567255313	176.579506765931	1832.87551046955	1215.98167490768	137.19656291085	2130.00947322867	806.276038250979	215.162099443693	1529.60932185617	1069.64207167695	141.011749802608	1681.36458854826
538.599117101959	142.162239137273	884.488109948803	847.321231447362	245.643934970024	1068.31052702471	595.541345522434	151.255435842261	863.334914696344	1237.40405103377	163.625583249405	1539.06070199486	1208.142452	140.530893860229	2092.63178684929	1104.15223270292	152.094246952396	1562.75644652519	486.19823159771	135.498326924495	716.293255799193	1149.05477291103	172.576957136592	1515.12196520464	643.103210648946	148.96262229584	878.23872492366	961.023519523408	187.781308999151	1196.46732601014	1163.34329668376	187.702883934741	1889.93957107595	1275.08284288756	148.539050513627	1569.8327825169	953.506129023038	176.623732531983	1836.25744815727	1217.33120171537	137.219629842208	2134.21112479962	807.519063700031	215.178431647918	1533.24703351453	1071.07083766284	141.004650252251	1685.39432749148
539.119891568213	142.164807348377	886.130673405877	848.897009454575	245.998262992492	1071.12631886962	596.116081722924	151.2543937487	865.011786045004	1239.45516828644	163.69236787943	1543.11261325393	1209.47945149974	140.559229858837	2095.86029614908	1106.42768716104	152.158638994488	1566.44554635986	486.787870634413	135.534929180182	717.885091596973	1152.20170853784	172.679104712785	1519.20059828335	643.93233604637	149.031493704612	879.899762155293	962.208588846627	187.875029802089	1198.83860897762	1164.60980540241	187.766830281696	1892.61235642041	1276.54151355319	148.581353397068	1572.35520544373	954.612853763135	176.674454460534	1839.66196465067	1218.77272758192	137.23368431937	2138.63100877912	808.850687399211	215.262418669072	1537.14258364088	1072.49896004667	141.001327222897	1689.55886759449
539.604369725908	142.162239137273	887.686322295195	850.446083740215	246.371617215767	1073.90256705685	596.59463918168	151.257719836966	866.479009492665	1241.31034895773	163.74990117009	1546.94738862814	1210.69683983148	140.583003518571	2098.43345041259	1108.66929373703	152.227527558715	1569.78387699314	487.311999637353	135.577996309183	719.277941885954	1155.13301731747	172.775536671691	1522.53869178414	644.597229974833	149.094680495717	881.237760632542	963.078018878904	187.93489356384	1200.58125141938	1165.64731962326	187.815889671792	1894.71551139804	1277.69289993186	148.613274816742	1574.22998635386	955.602031849799	176.714357027898	1842.71328528509	1220.12498606178	137.232357096474	2142.80428574469	810.13261334936	215.389356911376	1540.93532868716	1073.79174504621	141	1693.54939685225
539.982398428352	142.15462082999	888.97325666221	851.841731221655	246.737353201333	1076.43004367005	596.900603887027	151.261680516295	867.562748130862	1242.78057098173	163.793338418499	1550.23945151763	1211.6371962229	140.607588772763	2100.02813712027	1110.65582068383	152.297395681999	1572.45101794834	487.711162726377	135.619181533966	720.327698918596	1157.48987639241	172.856613122982	1524.66215649843	645.011848650326	149.142500576294	882.069996653502	963.482073287268	187.9481102541	1201.3518514309	1166.32098518704	187.840213068123	1895.92250535299	1278.38170256287	148.627753534197	1575.14020906966	956.338262101656	176.73095352372	1845.01267886802	1221.19757747347	137.214979589957	2146.21978992324	811.224444991343	215.533246623824	1544.23225292441	1074.82570089607	141	1697.03869625326
540.184814838824	142.142238939629	889.818832330784	852.970603787278	247.072570164597	1078.51637395699	596.96691249356	151.262113793577	868.099123576449	1243.70387685721	163.819235418822	1552.68620968781	1212.1477359305	140.635756389109	2100.3994986347	1112.16929313935	152.363119684589	1574.1876079148	487.92944812459	135.650317205343	720.914422200157	1158.94265794303	172.916442826201	1525.21057379553	645.110901647809	149.167757472959	882.253131123131	963.323191000276	187.911538582176	1200.91983310581	1166.53423661677	187.834583326388	1896.00038961501	1278.50606650419	148.622151317311	1574.88625494712	956.708269319602	176.717085942745	1846.19649918715	1221.82261423809	137.183485885345	2148.40818729547	812.004260402362	215.668101021702	1546.66461725122	1075.5069319739	141	1699.73159087688
540.159280816852	142.126974404306	890.092772931736	853.755249244092	247.359129260382	1080.02053784548	596.751663794201	151.25585670169	867.971102204865	1243.9811019326	163.827987207813	1554.06543570861	1212.10734294343	140.6682097865	2099.41516072359	1113.03227625281	152.419697116378	1574.83270497467	487.922856572045	135.668043708104	720.958456400789	1159.24828674807	172.953843248037	1523.99172295074	644.866050988887	149.165496749728	881.708865898937	962.573842106055	187.827136042618	1199.2051280079	1166.24856876502	187.798960560186	1894.84278320347	1278.04091708743	148.598097168325	1573.41767379648	956.638899731756	176.673671412012	1846.01514944965	1221.88734290101	137.143560600305	2149.04921836509	812.385153301485	215.769043346907	1547.95976394025	1075.78633063545	141.001327222897	1701.43324264728
539.87892732581	142.110382715658	889.729339390574	854.164499618068	247.587988849167	1080.86987757736	596.24931079428	151.243409064164	867.125067847729	1243.59212940655	163.822665313089	1554.26467385117	1211.44836577569	140.701556711844	2097.0647543335	1113.13970613782	152.461216685259	1574.33994902907	487.669785308641	135.672341489341	720.431196151161	1158.29628778427	172.970522919636	1521.00616642601	644.291475133	149.134787114724	880.444922398101	961.280205614913	187.70452746665	1196.2966258758	1165.48790902394	187.736738269034	1892.49331527312	1277.03625410469	148.559136383237	1570.8449879191	956.110792606803	176.607309759448	1844.37735212412	1221.35797461874	137.101880377306	2148.03008734729	812.328949999138	215.816590413999	1547.98262061869	1075.67022865438	141.004650252251	1702.07851582407
539.354099471212	142.09680792259	888.742594879996	854.222675503237	247.757983117222	1081.07265109962	595.495731410272	151.226863782329	865.591098293783	1242.60670383059	163.808545640224	1553.30805331368	1210.17880083147	140.729452577536	2093.4845189554	1112.48552449631	152.482865710995	1572.79886795246	487.17546027908	135.66487128038	719.365871822193	1156.14067130557	172.970243302896	1516.46886850108	643.443059864419	149.077041131339	878.553018792119	959.554039295087	187.55790263594	1192.43750217097	1164.33350443245	187.655749731121	1889.12810904653	1275.60762432427	148.511424012744	1567.41103005913	955.158495493289	176.530273365709	1841.38233253084	1220.27851560304	137.064502673146	2145.48000545799	811.850728982956	215.801325878676	1546.76887842859	1075.20842144332	141.011749802608	1701.75043824028
538.630626693489	142.089586400323	887.229009229777	854.000104716745	247.876263549386	1080.71315660554	594.562807442641	151.210695001568	863.481708053892	1241.16917370925	163.793159132991	1551.35055815787	1208.38810736283	140.746563023109	2088.95097700556	1111.16913181526	152.484192933892	1570.42719145121	486.474852363888	135.650815124529	717.856252852039	1153.00396569814	172.957949325913	1510.7983275325	642.407956631962	148.999201833851	876.200931309553	957.561067931823	187.4047196599	1187.99192799501	1162.9121569494	187.565207333984	1885.03733610908	1273.92006541045	148.460775901029	1563.45986470834	953.871720051708	176.456384447726	1837.31252276269	1218.77351698601	137.035529024564	2141.75190646748	811.019215469162	215.726132455472	1544.51859512952	1074.49184735226	141.023779221956	1700.6587912112
537.782379171361	142.093196704988	885.353241351114	853.601147199357	247.958493500288	1079.93576963097	593.545358615525	151.200684106353	860.977571846675	1239.47231855323	163.783693187146	1548.65674556698	1206.24340432003	140.749758584365	2083.85628914648	1109.38404281724	152.467194160407	1567.54184343716	485.629235794883	135.634644613721	716.047142196579	1149.25166670813	172.938843073884	1504.57103573262	641.292062884029	148.909869425302	873.606689264928	955.497542728015	187.26219636593	1183.39274484674	1161.37315175317	187.475874925436	1880.57567941	1272.1608599333	148.413390776422	1559.38174839657	952.380943609466	176.398138658952	1832.59192537473	1217.02195191037	137.017727277756	2137.37048530453	809.945053982443	215.60732005927	1541.55883029299	1073.63029793512	141.042050674087	1699.10107997474
536.90381872967	142.110042592925	883.324680698951	853.145053620124	248.023779221956	1078.92074204411	592.54898091331	151.202441131764	858.301232241688	1237.72742371327	163.78634763294	1545.55598794183	1203.96403028075	140.73974044824	2078.67665639499	1107.38639855718	152.438751617031	1564.52565818781	484.717877746784	135.620648642814	714.120379534299	1145.33310280341	172.918923548709	1498.45581546147	640.208542064604	148.821164366906	871.011329932319	953.568634159999	187.148413092953	1179.08449035691	1159.87316853351	187.399872966687	1876.12211633951	1270.51929404344	148.376527022013	1555.56249392675	950.838674925515	176.364510020519	1827.72265009943	1215.2302470392	137.010627727398	2132.94252070323	808.763080426711	215.471102701275	1538.28744043505	1072.73432894333	141.065807178367	1697.40593756329
536.091554658861	142.139527180237	881.363334979961	852.743692096282	248.09397975351	1077.85388567487	591.667997194387	151.219906551658	855.685407304299	1236.12691209814	163.803786860389	1542.39284858193	1201.78759824561	140.722007342225	2073.89782326977	1105.44946868982	152.409276436551	1561.76151288851	483.827684357708	135.612218741074	712.266763470715	1141.71387213116	172.903568041094	1493.11551811105	639.262706177503	148.744667409941	868.64667424668	951.963444223282	187.076973473077	1175.46231344124	1158.55429830001	187.347945787148	1872.03058685335	1269.16224223947	148.355660269804	1552.33334799115	949.402253524216	176.360760954792	1823.20199167877	1213.60240819871	137.013077025505	2129.05096291924	807.614055153052	215.348743953298	1535.1028984647	1071.90298620655	141.094153476797	1695.86643647906
535.43094161868	142.178639192132	879.670679411831	852.485915921962	248.18954362898	1076.90076579257	590.975073020589	151.254467427594	853.340421568915	1234.8176916225	163.838022720588	1539.4764600448	1199.9293139408	140.705070841135	2069.9648603991	1103.81496197431	152.391375435509	1559.58691259132	483.037601138729	135.612244587236	710.665214570999	1138.79222825226	172.899179646705	1489.12237170141	638.541043395363	148.690339914326	866.705206740018	950.831876176167	187.059077209635	1172.82677235677	1157.52975172481	187.329781199931	1868.59653263215	1268.2173177837	148.356629459467	1549.93676973607	948.21150103634	176.38838502194	1819.44729133367	1212.31199086611	137.025106444853	2126.15998989548	806.625829810435	215.268986462908	1532.33994316974	1071.21160779091	141.12618865601	1694.69371742124
534.98199592669	142.222734720739	878.403197975174	852.422924363999	248.327075002761	1076.18799407185	590.510440488812	151.304941953964	851.432768531137	1233.88228113915	163.887951034757	1537.04550609873	1198.55086166318	140.696727174085	2067.21394604852	1102.65585992215	152.394693657689	1558.24148096008	482.410661942239	135.620497416007	709.457077811026	1136.84539828936	172.911296979431	1486.86935473409	638.104933154957	148.665495327334	865.323364736902	950.270381836884	187.100752695033	1171.35702252235	1156.87601383964	187.351375681416	1866.03340104228	1267.76102698902	148.382428177016	1548.51298982041	947.375232878602	176.445796357098	1816.74339001741	1211.48316539248	137.046700926337	2124.5470824165	805.898010475154	215.25467856145	1530.22769855813	1070.70788526123	141.160598305138	1693.98572067195
534.772330620776	142.26491563227	877.649145513052	852.564856417445	248.516416391343	1075.7829406101	590.279974315797	151.3681252703	850.062347448561	1233.33668266738	163.952267832801	1535.2334501165	1197.73656714118	140.702616735854	2065.82315649682	1102.05507518149	152.425152996884	1557.83435091955	481.983821877978	135.636786839812	708.727227292086	1135.99295142393	172.944553350145	1486.51852304466	637.981156615772	148.672538167517	864.557956294589	950.306040188682	187.200886346751	1171.08961630051	1156.62116957178	187.415080188412	1864.44383835062	1267.80917869969	148.43340339192	1548.08120090634	946.955499266417	176.530194159056	1815.21769283565	1211.17378550709	137.077556980975	2124.27667791272	805.489132719963	215.319164079142	1528.87061596292	1070.40804175856	141.196016698648	1693.72614913987
534.794104525711	142.300701486325	877.426085130599	852.885768524484	248.761867668776	1075.69698961711	590.260125261707	151.440770141163	849.259730597258	1233.13977399136	164.029756697104	1534.06827712691	1197.49869968328	140.723863483927	2065.79721749574	1102.0096474011	152.482276640875	1558.33765681267	481.770250834702	135.659360810781	708.495437441046	1136.2062734728	173.001581214671	1487.99289871911	638.161218534058	148.709921433899	864.393409706275	950.902863801759	187.35310998915	1171.93646242952	1156.75135876118	187.519132888336	1863.82952427394	1268.32359776606	148.506600037206	1548.56258583888	946.961430931057	176.638224693763	1814.83270232065	1211.37142836493	137.11925992165	2125.2016207775	805.409425594439	215.464577880231	1528.24433803199	1070.29543059932	141.23315730045	1693.79441223083
535.006199970661	142.325724824974	877.68059429451	853.331132236549	249.057918972424	1075.88474719907	590.404241205671	151.517977350899	848.986627696885	1233.207637288	164.117932698753	1533.47826336368	1197.77920738864	140.758413156949	2066.97320320818	1102.43851388577	152.559579630076	1559.60168167443	481.756300681375	135.685506428224	708.716448786121	1137.32262105824	173.082229950902	1490.99903980093	638.605592055562	148.773084466294	864.749037106322	951.968368153672	187.545574063034	1173.70919873333	1157.21486896292	187.657859864597	1864.09945617992	1269.21834217805	148.596086106298	1549.79659482435	947.353196739426	176.766321242851	1815.42585429094	1212.00403453201	137.17156235945	2127.02713686396	805.624493832021	215.682792586163	1528.22774942806	1070.33055577894	141.272644570607	1694.01579270622
535.345329299437	142.338106715335	878.298145973253	853.829858605084	249.393488406702	1076.25542051982	590.653093909886	151.595303057776	849.145009710813	1233.43513216836	164.213385168174	1533.30933503048	1198.47274356745	140.801166473127	2069.05007432917	1103.21464850105	152.647611008172	1561.38223322696	481.910112600664	135.714112546688	709.290211038548	1139.09561694038	173.183312162058	1495.07831636882	639.24753967757	148.85589522532	865.495218974152	953.366723368547	187.762975495821	1176.14720086522	1157.92886272115	187.822491589803	1865.08586377167	1270.37091323367	148.694177544747	1551.56254471167	948.04394732602	176.910667591451	1816.74512741031	1212.94423096586	137.233505033862	2129.36544367111	806.059388422347	215.958151566311	1528.63475328086	1070.45040697258	141.315908708051	1694.19846169289
535.737205808433	142.33729344219	879.126993866603	854.310356810866	249.751225693213	1076.69142133875	590.947923527678	151.667779150469	849.60010193018	1233.71898136654	164.31153807254	1533.36667955777	1199.44819302094	140.846444535045	2071.63964213114	1104.18395134208	152.73561138665	1563.38383999146	482.18604687634	135.744035100992	710.079810279309	1141.23605846951	173.298964478817	1499.68394714811	640.003673555641	148.950592876492	866.478911321917	954.940000941253	187.989035945688	1178.95892100911	1158.79431890024	188.001327222897	1866.57904998425	1271.63862540181	148.791936726549	1553.61164751665	948.918549926098	177.065807178367	1818.49230041503	1214.03232779555	137.302199594793	2131.80053639887	806.616413423538	216.268347564365	1529.25016153954	1070.58145619086	141.364683743806	1694.1714425518
536.108895710833	142.32399051724	880.001302317597	854.705659718883	250.111364904916	1077.06293756	591.235861715201	151.730686324834	850.201954927689	1233.96698344961	164.403825980324	1533.44560795874	1200.56459844994	140.889166851605	2074.34145190686	1105.19088483808	152.814932899984	1565.31566283738	482.530478513396	135.775269472804	710.936237072709	1143.45271714924	173.42155325808	1504.26765649164	640.783215377623	149.050734346405	867.544441662689	956.529301565375	188.209119349119	1181.85161544103	1159.70546195569	188.184813108242	1868.35399306156	1272.87570343355	148.883046790732	1555.69050333471	949.844738371582	177.225536559432	1820.36719421075	1215.09160568177	137.374962962797	2133.94544929455	807.188822562065	216.590054224841	1529.86742763623	1070.64551040833	141.420336666237	1693.81430459478
536.400016924294	142.29991573803	880.767258093031	854.96333117958	250.454954993713	1077.25151789593	591.479527608855	151.780614639002	850.809514107177	1234.11146960091	164.482860148774	1533.370850682	1201.68849664233	140.925766048379	2076.79193447942	1106.09342152178	152.880392344938	1566.92492847633	482.88865408083	135.807306330706	711.719718267749	1145.48895262774	173.542917717356	1508.34741264869	641.499241562395	149.14875502693	868.551295787056	957.990020615289	188.411280642946	1184.56399269799	1160.55943410602	188.363190442512	1870.19605856521	1273.94823714009	148.963143752539	1557.56892473291	950.69882148324	177.382319412218	1822.10772834977	1215.96178045021	137.447698875524	2135.49290345294	807.683030753617	216.900042771343	1530.31801788394	1070.58027385219	141.481900677191	1693.07405107435
536.570333063582	142.267452843755	881.306422400309	855.049525218936	250.766764864798	1077.16768577554	591.656629758836	151.81626012288	851.31208645859	1234.11425402913	164.542031637828	1533.02376577902	1202.71287942958	140.954626296559	2078.71543340943	1106.78313708236	152.930847074603	1568.03417451201	483.212618939475	135.840728917759	712.319769245983	1147.14885902603	173.656989040639	1511.57129267335	642.078660597732	149.238665336314	869.392617777966	959.211202902377	188.588504698803	1186.88908679577	1161.26782316902	188.529473161733	1871.92776595233	1274.75295492347	149.031400229013	1559.06572435319	951.376126800442	177.529473161733	1823.50596707051	1216.5093825862	137.516772099912	2136.22880752131	808.025556984495	217.178895646467	1530.47895419427	1070.34008136357	141.547650872226	1691.95520046829
536.601325236296	142.229292866068	881.539724914839	854.951338322072	251.037181025984	1076.75786718955	591.762641631468	151.83871212194	851.633656016633	1233.96313466671	164.576441286957	1532.34184034331	1203.56243307203	140.97356633225	2079.95278291093	1107.18961110192	152.967794004789	1568.55521419943	483.465585183672	135.87381134399	712.665869231952	1148.31204870627	173.758853941179	1513.75154815251	642.475080208451	149.315185010954	870.003934489542	960.128246610792	188.73780363407	1188.69173070225	1161.77291973359	188.679179181837	1873.42052704702	1275.23637166213	149.088455618389	1560.06581338496	951.806694939333	177.660050212132	1824.43401103293	1216.65466736506	137.579663333763	2136.06144225133	808.175154469895	217.410554908022	1530.28865534306	1069.91042622643	141.613287234595	1690.52078865733
536.495820572219	142.188131330422	881.435647042722	854.677791193642	251.26271445693	1076.01612958701	591.80708212768	151.852216862506	851.740557500426	1233.67322120988	164.587377816419	1531.32158549604	1204.19513963631	140.983599945141	2080.45244991044	1107.2843580481	152.996676970646	1568.47846272357	483.626499531784	135.905846523203	712.72967706306	1148.93440874411	173.847116177518	1514.8544143145	642.673734449815	149.37416275882	870.365955212115	960.724930811953	188.859689771241	1189.91812632754	1162.04878619545	188.810282647733	1874.60488098615	1275.39600019193	149.137155410096	1560.53099888742	951.959509316277	177.769559196543	1824.84765113129	1216.37813171575	137.635316256194	2135.01704874032	808.121384341503	217.583338596916	1529.74337648031	1069.3073278277	141.672693960354	1688.87405456152
536.274174105762	142.146455914597	880.999793226168	854.257242945698	251.445130239638	1074.97350530984	591.809131048007	151.860996176347	851.629355543761	1233.27715686381	164.580476606909	1529.9966520243	1204.60374235398	140.984927168038	2080.26387319893	1107.07517937856	153.023779221956	1567.86473627353	483.691241345115	135.934192821633	712.524294146374	1149.0394557855	173.922443019025	1514.98291999832	642.690250493974	149.412061653641	870.500585648131	961.028107144104	188.958493500288	1190.58701540794	1162.10519702687	188.921093078452	1875.46530927813	1275.27627522532	149.17837733427	1560.49410427075	951.84648919767	177.855285900085	1824.77902917369	1215.72115129807	137.684091291949	2133.21607984985	807.886017353166	217.692153221179	1528.88929367865	1068.57812835433	141.721121262697	1687.13470121257
535.966714974232	142.107510119041	880.265692479373	853.731877910299	251.589587219293	1073.69034507456	591.792801099756	151.869790479719	851.321812323516	1232.81778066179	164.565631574276	1528.42157026786	1204.80484634928	140.979543807398	2079.49969726803	1106.59858899017	153.055796283152	1566.81273394251	483.669065300459	135.957949325913	712.090588793759	1148.70013444482	173.986922974495	1514.33098780568	642.566530749992	149.428920007324	870.457017866031	961.100017955476	189.040353000102	1190.77914177549	1161.98534902775	189.011923525895	1876.02903977888	1274.96242366103	149.21261319447	1560.04664587398	951.511981960446	177.917770049098	1824.33156694117	1214.77389060634	137.727355429393	2130.85751452183	807.515348934051	217.738854147516	1527.82049425148	1067.78694879065	141.755530911825	1685.42901538935
535.607998557375	142.072906728724	879.283676365674	853.150649075845	251.702414495457	1072.2400742426	591.780735046659	151.881452368949	850.850849821098	1232.33871835507	164.554400321078	1526.6536257676	1204.83312317391	140.971026351418	2078.30287204356	1105.90841385341	153.09668595068	1565.43080804765	483.580805471717	135.976220778044	711.488279220056	1148.02018005436	174.043150031621	1513.12669838191	642.355325046907	149.428222172406	870.296749087696	961.014874065089	189.112832013765	1190.61295747043	1161.74559981028	189.083354933401	1876.35087029408	1274.54771322897	149.238758811913	1559.3166621303	951.025920027073	177.958493500288	1823.65535136856	1213.65911561756	137.76684269955	2128.18222577359	807.071493271137	217.732702949082	1526.65848795833	1067.00931186532	141.774557182206	1683.8684098409
535.231842495407	142.045373703441	878.109470722081	852.562172676887	251.790276887868	1070.69304057003	591.791010303044	151.897590565946	850.251478624826	1231.87864905198	164.556963794581	1524.7415532544	1204.7325899265	140.96262229584	2076.82266388514	1105.06419010994	153.146906347334	1563.82097464472	483.453250259287	135.988250197392	710.785537144304	1147.11184948138	174.093105870639	1511.58949315017	642.110018962312	149.41566369631	870.075792591876	960.842191003554	189.1817230813	1190.21362193814	1161.4440512884	189.136893552235	1876.48663371692	1274.11608997248	149.255703041147	1558.43198091956	950.466819709524	177.982272722244	1822.91192934032	1212.50703666295	137.802656078455	2125.42631741549	806.621998113373	217.689601761549	1525.53099756072	1066.31331532066	141.779310133782	1682.5320754115
534.864595915151	142.025106444853	876.80073680227	852.004110026219	251.857818373969	1069.10735496111	591.832387150593	151.917596325812	849.558181544551	1231.46223148145	164.579506765931	1522.72535385706	1204.54923591244	140.958319777002	2075.19399028446	1104.12369374476	153.202962588463	1562.06144553469	483.314593903007	135.995349747749	710.048104518172	1146.0834823093	174.137155410096	1509.9019194648	641.872864240636	149.399429719848	869.837194303648	960.635417959626	189.251218867293	1189.68944936106	1161.12963713294	189.173639168642	1876.48538238972	1273.72626662436	149.262020317978	1557.50190865257	949.909998150866	177.994022524852	1822.24458426207	1211.43533002823	137.833424219715	2122.78428617056	806.227826251594	217.628177636546	1524.55069494542	1065.75078144791	141.772267293598	1681.45385550577
534.522598503415	142.011749802608	875.416019486958	851.500026432331	251.90908637678	1067.52733185124	591.904648668289	151.938843073884	848.806160098171	1231.097737119	164.622755080325	1520.64448977595	1204.32719352653	140.96007471496	2073.52396503184	1103.13432570917	153.257457979105	1560.20184943063	483.189338481293	135.998672777103	709.33197232512	1145.02317808561	174.17372708202	1508.18242408028	641.672179530858	149.386463325397	869.602624845241	960.423458900227	189.320633429354	1189.10883883706	1160.83452956522	189.194973830092	1876.37230902428	1273.4045466266	149.257457979105	1556.59007673013	949.412533905726	177.998672777103	1821.74494890784	1210.53061630424	137.857411289132	2120.37570157691	805.934687555034	217.566429740426	1523.79202827951	1065.34730019384	141.75630288553	1680.61342819432
534.212192069002	142.004650252251	874.010096793764	851.055831152643	251.946199523305	1065.98255626153	591.99921668544	151.95927654881	848.029042529618	1230.7752754212	164.683140032737	1518.53855473457	1204.10086327018	140.968506295388	2071.90103329522	1102.12802033177	153.301945603018	1558.27366607732	483.095454103268	136	708.683241207656	1143.98848908522	174.202190614758	1506.4914775909	641.522035058261	149.380297275374	869.37645031569	960.215212196461	189.386448473808	1188.49609474776	1160.57794315144	189.202164422313	1876.15200169803	1273.15047578666	149.242887873503	1555.71400368172	949.010310371987	178	1821.44211060714	1209.84307107333	137.870317498639	2118.23183597774	805.769190534484	217.517134289005	1523.2844845492	1065.10236507696	141.731764107723	1679.94282139287
533.92682607239	142.001327222897	872.634676220324	850.656286260605	251.971570525793	1064.49375764796	592.096429921079	151.976220778044	847.264301151792	1230.46350547782	164.752011441509	1516.45811184484	1203.89047651507	140.982622493484	2070.37801037589	1101.11748822415	153.328876968758	1556.28385016017	483.041332776425	136	708.127629471679	1143.00077028694	174.219629842208	1504.82663881757	641.421394386383	149.380040930108	869.147407238038	960.002994632754	189.44094386445	1187.8382145943	1160.36745975753	189.196301052989	1875.81874526465	1272.94334445226	149.220080274945	1554.85624622913	948.718612409628	178	1821.30302102006	1209.38845777946	137.86836292559	2116.3020718483	805.742334317986	217.48948786332	1523.01342140381	1064.99987648332	141.69814020689	1679.33821404317
533.65320215024	142	871.332534412703	850.277033936457	251.986922974495	1063.07675295416	592.174444979681	151.988250197392	846.544621457715	1230.12469719564	164.820910375131	1514.45674552439	1203.7031468297	141	2068.99259662234	1100.10005254518	153.33343930763	1554.23662460841	483.024502919053	136	707.677542894398	1142.04345617249	174.226729392565	1503.14912545231	641.359323855889	149.38082980689	868.891169020173	959.771873918152	189.476999907935	1187.09304574149	1160.20363087087	189.179616643789	1875.35401972678	1272.75565894824	149.191366446397	1553.97013430084	948.534819518902	178	1821.25437665223	1209.15340822678	137.851418696356	2114.48405324965	805.850108557053	217.488254116023	1522.93430378425	1065.01027514916	141.655749731121	1678.68674506475
533.373926697495	142	870.133587989072	849.888511495104	251.994022524852	1061.74638695209	592.209891035984	151.994022524852	845.897164148246	1229.71984416311	164.881719567835	1512.59010391927	1203.53823601762	141.017377506516	2067.76211722532	1099.06716784269	153.314760770662	1552.13490451224	483.036967919549	136	707.331234412654	1141.07695939085	174.224642613818	1501.39406546915	641.319854269752	149.375577895095	868.584065201302	959.507360847797	189.488060137621	1186.21509756429	1160.08555379031	189.15462082999	1874.74909502479	1272.56125480009	149.159271082241	1553.0134882821	948.446126890214	178	1821.21629516993	1209.1082358596	137.820910375131	2112.6713932096	806.079172274979	217.514299264292	1522.99293572785	1065.10520618437	141.605132619025	1677.89983545591
533.074247158733	142	869.048949203791	849.467987912732	251.994022524852	1060.51580739642	592.186469847263	151.994022524852	845.333591769345	1229.22742572095	164.92819262881	1510.89933764182	1203.38954982794	141.031493704612	2066.67463153773	1098.01088026143	153.276136516073	1549.97727152397	483.067680613466	136	707.072539961746	1140.04565420934	174.215777756107	1499.47964810358	641.282368238402	149.35987297538	868.207646750349	959.189288909177	189.471115908387	1185.16410324752	1160.00322189823	189.124861433113	1874.00368035543	1272.33055039715	149.12618865601	1551.95173294158	948.435615968413	178	1821.1293143784	1209.21627940847	137.780985090091	2110.79309615637	806.409550051978	217.566676876568	1523.14576443326	1065.26257828775	141.547721630149	1676.93608017627
532.747177955408	142	868.069890288015	849.011946194779	251.988250197392	1059.39723248966	592.099596046969	151.988250197392	844.848417373275	1228.65350508718	164.958493500288	1509.40563873196	1203.25196812332	141.03992528504	2065.69187653794	1096.92994205417	153.224209336535	1547.75821297659	483.107059686304	136	706.876955446975	1138.89514179331	174.202962588463	1497.31739751593	641.22865805381	149.331160825521	867.756728956113	958.797084146127	189.42626556153	1183.9144704793	1159.94424143649	189.094153476797	1873.13425621406	1272.03479822323	149.094153476797	1550.76653413967	948.481932101591	178	1820.96590462686	1209.43307574205	137.739646706602	2108.82733860168	806.815220353985	217.641459809738	1523.36585220715	1065.46290031861	141.489903210153	1675.80424348489
532.395768315122	142	867.172595754651	848.5328469523	251.976220778044	1058.39872843221	591.958062404364	151.976220778044	844.421083807213	1228.02970508926	164.971850142533	1508.10534278439	1203.12061302748	141.041680222999	2064.75397346295	1095.82900019091	153.167339822261	1545.46674268749	483.149002163073	136	706.717207510674	1137.57819490846	174.188586570333	1494.81745479708	641.144706262653	149.292536570932	867.239957114168	958.301473159441	189.357212967365	1182.44708474058	1159.88833522593	189.065807178367	1872.16123243382	1271.6375737685	149.065807178367	1549.44271624217	948.564705336605	178	1820.74142168916	1209.7147223247	137.705158754513	2106.81156977274	807.269155634428	217.733441101859	1523.65411717386	1065.6901370705	141.438343560733	1674.56658213516
532.034931198928	142	866.326771512877	848.061580110211	251.95927654881	1057.52564231238	591.78418132973	151.95927654881	844.025795750836	1227.41114644555	164.968916079999	1506.97572709177	1202.98998526017	141.03737770416	2063.77447304107	1094.71771594783	153.113630179914	1543.0755760988	483.191459921997	136	706.562370409387	1136.06749778258	174.173988939881	1491.89158900929	641.018252274013	149.249315781388	866.674233564656	957.660047942086	189.268966207792	1180.73963610848	1159.80497692683	189.042050674087	1871.10016089317	1271.08828523212	149.042050674087	1547.95367125001	948.660376189598	177.998672777103	1820.49568177885	1210.01015699082	137.683912006441	2104.81188646983	807.744670267605	217.834951028077	1524.02774601294	1065.92573669238	141.399779491087	1673.30787600196
531.687183284418	142.001327222897	865.505061907035	847.638044608365	251.938843073884	1056.77738090986	591.608876981381	151.938843073884	843.640874976607	1226.86248364411	164.953299073663	1505.98285594367	1202.85756730855	141.028973648582	2062.67195131519	1093.61092042864	153.070480148294	1540.55934241194	483.236052614743	136	706.38784229877	1134.3639078042	174.159271082241	1488.48173747107	640.842714117607	149.208063273451	866.082736922242	956.830634026148	189.167883996636	1178.76721563153	1159.66410701809	189.023779221956	1869.96273931873	1270.3385127064	149.023779221956	1546.2642669719	948.748356062409	177.995349747749	1820.268697728	1210.26853162693	137.677960723739	2102.8867903125	808.218865745221	217.938749598284	1524.50553233507	1066.14550673267	141.379773731222	1672.10292168348
531.380517446221	142.005977475148	864.690465548573	847.300776973343	251.917596325812	1056.14572896214	591.463343322874	151.917596325812	843.255555648248	1226.43899899704	164.927093271276	1505.08941682936	1202.71915748587	141.019128969705	2061.40268355383	1092.52358216781	153.041506499712	1537.91263124858	483.284822088276	136	706.180176838098	1132.49518227934	174.143566162526	1484.59061735041	640.615902645309	149.174787106031	865.48888377004	955.782768620633	189.061156926116	1176.5064047186	1159.43961334453	189.011749802608	1868.75513159522	1269.35268825807	149.011749802608	1544.33507893123	948.804152115467	177.988250197392	1820.08818610903	1210.43953986383	137.686216680996	2101.07223076599	808.671184910871	218.037545648813	1525.09724602124	1066.31843521093	141.380952855798	1670.99880054274
531.138401546422	142.016400054859	863.876331080777	847.074530171771	251.897590565946	1055.61256054818	591.369982450006	151.897590565946	842.868614560294	1226.16763795293	164.892489880959	1504.25332121942	1202.56983851012	141.010422579711	2059.97190165055	1091.46876690557	153.028149857467	1535.15614399862	483.339594454407	136	705.939219441549	1130.51350352171	174.125647181409	1480.28935715202	640.340555209602	149.152883822482	864.913900665255	954.50845136959	188.955243128743	1173.95275760794	1159.11633506909	189.004650252251	1867.48969176995	1268.11864402548	149.004650252251	1542.14495460572	948.811571590597	177.976220778044	1819.95685799672	1210.48819163253	137.702450657458	2099.36897396401	809.087867651386	218.123542472211	1525.7920112652	1066.41507896686	141.400417141062	1669.99865940237
530.975882086987	142.035529024564	863.071913481056	846.962988295333	251.880125146052	1055.15281620906	591.335730493599	151.880125146052	842.489777035466	1226.04089672085	164.852216862506	1503.44115856754	1202.39966382808	141.004650252251	2058.44933236206	1090.45365903823	153.029756697104	1532.354553435	483.399276059305	136	705.679988358576	1128.48269955581	174.105732463407	1475.73287167846	640.02562104592	149.142588710869	864.382276539136	953.038712145293	188.857222448217	1171.14010032262	1158.70136073819	189.001327222897	1866.20400430818	1266.66779290239	149.001327222897	1539.71978470076	948.758077953098	177.95927654881	1819.84466935214	1210.3965146763	137.719719570747	2097.73978419242	809.455278543635	218.190306422387	1526.54852669093	1066.40670497146	141.433824251349	1669.06160060786
530.895689483658	142.064502673146	862.291861625261	846.946111817462	251.863813004571	1054.73322083654	591.350199434451	151.865140227468	842.129577288997	1226.01280687597	164.807218417328	1502.61965027409	1202.19215388316	141.001327222897	2056.9559121999	1089.47457790812	153.042050674087	1529.60454726303	483.45778883945	136	705.429585098312	1126.46316838076	174.083730897085	1471.1337694205	639.688656064557	149.142047236267	863.922741059688	951.4461346938	188.773084466294	1168.1596215482	1158.22949115812	189	1864.9680435804	1265.07601842422	149	1537.15017113414	948.643309278592	177.938843073884	1819.71525611537	1210.17584931198	137.732534738391	2096.15212891411	809.764482049068	218.232880591	1527.31398068264	1066.27911652965	141.475076759286	1668.13367329529
530.8849776387	142.101880377306	861.553951522187	846.980759358207	251.844596121488	1054.31850118468	591.385912561428	151.850573596635	841.79480910592	1226.00855779996	164.757630108427	1501.7614511554	1201.92025499932	141	2055.62653139599	1088.51683106606	153.061156926116	1527.01381678328	483.506551457352	136	705.217594232213	1124.49786762724	174.061156926116	1466.71886568446	639.352215268541	149.148216414777	863.563473002209	949.829809179274	188.708594211002	1165.15418669639	1157.75487150856	189	1863.87901918327	1263.45108990984	149	1534.58663958415	948.477487731275	177.917596325812	1819.53640188276	1209.86220745957	137.738506700943	2094.59678957523	810.009147578206	218.249039071937	1528.02932477654	1066.03251576698	141.518166605964	1667.16698733701
530.924826554803	142.143560600305	860.876377897207	847.013170293569	251.816687837942	1053.87634813153	591.408131150144	151.8330878928	841.484271164553	1225.94849626128	164.702790459141	1500.85308842154	1201.55581899516	141	2054.58655893847	1087.55884694207	153.082403674188	1524.68532096054	483.535717835767	136	705.073976318311	1122.60974602921	174.04072345119	1462.69483245478	639.04013438107	149.157275275784	863.333488647336	948.29981032566	188.667887915267	1162.30436705957	1157.3427001133	189	1863.05292931906	1261.91257054133	149	1532.22127853579	948.281498699783	177.898917788843	1819.30349256632	1209.51114338555	137.73895713368	2093.11433203416	810.188794114547	218.239730701349	1528.64967562129	1065.68562397161	141.560557081733	1666.15018283025
530.991880421541	142.184813108242	860.271572397779	846.990108841179	251.774209448794	1053.38110336789	591.38586047442	151.811065696255	841.189148468475	1225.76919899293	164.642960755922	1499.89294303071	1201.07199972818	141	2053.90377653712	1086.58057541644	153.101082211157	1522.68328245964	483.536594625926	136	705.01698797702	1120.80220337197	174.023779221956	1459.19709637071	638.773371110237	149.166889389524	863.255780754413	946.953833334832	188.653745524726	1159.79552325336	1157.05445285409	189	1862.59632799639	1260.56824454452	149	1530.24895146049	948.08472565936	177.884775398303	1819.04447351371	1209.1900522865	137.736992260809	2091.79952464471	810.308202184143	218.208385144684	1529.1521537664	1065.27320616467	141.600381025088	1665.1167354726
531.068179958963	142.219629842208	859.749966228289	846.87492782638	251.711725299781	1052.82045965556	591.303606230958	151.783532670971	840.898853827129	1225.44593970148	164.577996309183	1498.90174741311	1200.46235698666	141	2053.58178152928	1085.57875534308	153.1138973788	1521.0280863129	483.508071410082	136	705.053390929297	1119.08023223603	174.010422579711	1456.27631823912	638.566888276463	149.176557150985	863.340655689336	945.853010978773	188.665233469473	1157.77769172176	1156.927898959	189	1862.57917360078	1259.48779067127	149	1528.82173958881	947.911211821738	177.876890030076	1818.81565911497	1208.95388057658	137.736558983526	2090.78034946973	810.371320924218	218.159345551294	1529.53797176986	1064.8318637408	141.637755254479	1664.13703625932
531.147501354831	142.244106899082	859.320942365339	846.65810694631	251.627753534197	1052.19821138788	591.16979861635	151.752011441509	840.610664708549	1225.00733731388	164.511149958225	1497.92148122109	1199.74798329766	141	2053.55802820189	1084.57453872452	153.118459717673	1519.69675001227	483.458676704427	136	705.177876398725	1117.46332263532	173.998672777103	1453.90128167676	638.428263107371	149.186018359229	863.58505008007	945.016390507816	188.696639260707	1156.33508276494	1156.97365024001	189	1863.01413347355	1258.69412866418	149	1528.01356684527	947.778080822062	177.874352818591	1818.67518239371	1208.83994449736	137.739493046059	2090.17509674861	810.383185457826	218.096431958906	1529.8209563377	1064.39476548549	141.671031421899	1663.29074915147
531.23231776295	142.257463541327	859.000194640788	846.354067185692	251.522373611375	1051.53505610784	591.012665203066	151.720517736897	840.337919356644	1224.52287631993	164.447180893594	1497.01926155929	1198.97844623138	140.998672777103	2053.72171435736	1083.61617902659	153.1138973788	1518.63105088792	483.405067393313	136	705.373502664739	1115.99795311558	173.983599945141	1451.98106284563	638.356295787485	149.19534428118	863.968704667667	944.420045685845	188.737629910783	1155.47164885478	1157.16912702831	189	1863.84937549468	1258.16294095275	149	1527.80709157955	947.689640747003	177.875138566887	1818.67259981037	1208.85621078228	137.743513910331	2090.05762676533	810.345636888043	218.022551253293	1530.02456833031	1063.98156515498	141.696812983994	1662.64321175401
531.33364840366	142.260353293398	858.805138166043	846.000015117627	251.399263641452	1050.86545766435	590.875248408683	151.693408951905	840.110321722753	1224.09020132018	164.391710751068	1496.27062588451	1198.23019008291	140.994022524852	2053.93598045473	1082.77570803213	153.101082211157	1517.75805371855	483.369177428224	136	705.614235586519	1114.76088804308	173.958493500288	1450.39906759723	638.345977958195	149.203395865745	864.453800016684	944.0123991636	188.774209448794	1155.1114600873	1157.4734069502	188.998672777103	1864.9667517311	1257.84329684681	149	1528.09310528783	947.636739895608	177.876872874622	1818.83715783089	1208.9816874031	137.746033966361	2090.4406549144	810.258308152038	217.941474802002	1530.1770100951	1063.59470637698	141.710504941797	1662.23039349438
531.466386873431	142.256392614069	858.757234577617	845.644001177081	251.263771781167	1050.2316621537	590.802216404851	151.675938724837	839.972288636627	1223.80821808346	164.350651984319	1495.75320820555	1197.59399411742	140.983599945141	2054.07647048385	1082.14047656658	153.082403674188	1517.01390743543	483.373212748176	136	705.871103246935	1113.85256265119	173.919097271995	1449.0543710967	638.389645016694	149.208050855597	864.990348050957	943.732967325807	188.792110449836	1155.12145192422	1157.83638868466	188.994022524852	1866.20424911841	1257.67429592937	148.998672777103	1528.70124999582	947.60069774825	177.877686147768	1819.16920032731	1209.17468162673	137.742809219781	2091.26283369173	810.119467465864	217.856439399695	1530.30262282373	1063.22283599639	141.707280195217	1662.04681135471
531.641997622002	142.251070719346	858.876031638946	845.332057919588	251.121799902481	1049.67873287918	590.824507700167	151.669533950484	839.973953065237	1223.75099498703	164.3273231951	1495.53259608415	1197.15126629548	140.963143752539	2054.05177714634	1081.79137099877	153.061156926116	1516.35730857694	483.432702649713	136	706.114717393143	1113.37162917902	173.861263375233	1447.88548104034	638.478093394173	149.206814674564	865.53018560932	943.532492023259	188.780360647228	1155.35057201945	1158.21308859996	188.982272722244	1867.39927530336	1257.60629039373	148.995349747749	1529.44840247223	947.559813100697	177.876872874622	1819.64658380332	1209.38513766675	137.730779800433	2092.4131510783	809.927227753701	217.77183171245	1530.42085432168	1062.84810087009	141.684078874096	1662.05678222902
531.865220495956	142.248336291903	859.1668276345	845.100827401299	250.978753251928	1049.24097901377	590.952523073144	151.674187261648	840.149087149632	1223.95113980602	164.321243020628	1495.63667384773	1196.95988940597	140.930847074603	2053.82569536399	1081.787321623	153.04072345119	1515.78323693632	483.552489590283	136	706.322200581695	1113.39088375766	173.787286474299	1446.88368363279	638.60418340827	149.198955498783	866.030990429819	943.383377839591	188.734030171979	1155.65080934772	1158.5706224281	188.959820723185	1868.4062049024	1257.6110714767	148.988250197392	1530.16293042037	947.490424291696	177.87381134399	1820.22574030992	1209.56079664665	137.711287990319	2093.74697062788	809.678718004549	217.691989008456	1530.54135330198	1062.44724673523	141.642826366158	1662.20075018113
532.130833963144	142.252634003568	859.618762915366	844.967832032465	250.839088085624	1048.93932743789	591.169908320203	151.685506428224	840.509786936046	1224.38818691599	164.329265350296	1496.05483606308	1197.03325292245	140.886369820086	2053.42297587953	1082.14526808757	153.023779221956	1515.32284350025	483.724117475701	136	706.482589001545	1113.92590331732	173.701556711844	1446.08539482537	638.758599160146	149.18426689604	866.466197208681	943.279951179167	188.655399959881	1155.89882880429	1158.88810774585	188.923747524246	1869.12842421368	1257.67949633724	148.976220778044	1530.71876780304	947.373387237724	177.869702566341	1820.84434825817	1209.66066979339	137.687007236465	2095.11039285098	809.373807563302	217.6179546423	1530.65832163695	1062.00467390776	141.588203507418	1662.41169516994
532.42542019577	142.264821890632	860.196561177171	844.933689582223	250.706468821956	1048.77369436172	591.440775703385	151.697958872924	841.033618863955	1225.00137923268	164.34345210273	1496.72750834059	1197.33872421346	140.832660177739	2052.91738894029	1082.83507558662	153.011749802608	1515.03172887638	483.92934612842	136	706.59654770832	1114.92064493307	173.611703112635	1445.55188963008	638.929437752927	149.166370632599	866.827324931352	943.231854043798	188.551925160792	1156.00699199028	1159.15282801688	188.873013177841	1869.52420855276	1257.81416278636	148.957949325913	1531.04369089309	947.196130437387	177.865140227468	1821.42257799993	1209.66167045928	137.664188922229	2096.35429007909	809.015633292309	217.549063574765	1530.74602666746	1061.51557492253	141.527577686508	1662.61855925398
532.729185516592	142.283852898614	860.847951783062	844.983607782403	250.584144600328	1048.7287403468	591.717073524891	151.705310515172	841.668589131047	1225.70305904364	164.357026826225	1497.56465876217	1197.79838779684	140.775790663465	2052.40978123217	1083.77780663238	153.004650252251	1514.97524739524	484.142072861233	136	706.673549440102	1116.244462378	173.525706289236	1445.3417103643	639.099829457312	149.148640655069	867.115598101529	943.25245391817	188.434792666016	1155.92407410838	1159.35402366539	188.811065696255	1869.602433486	1258.0171918589	148.934192821633	1531.11735491377	946.957179434878	177.85966895345	1821.86914990663	1209.56070331438	137.647506191717	2097.3460959213	808.615125534164	217.482450364162	1530.76140083977	1060.99176896587	141.469106139771	1662.75372639787
533.022297261519	142.305893213177	861.507054100458	845.094546013292	250.47508917714	1048.77342597554	591.952611331032	151.702100886219	842.339880356593	1226.40553701841	164.363196004734	1498.45512334773	1198.30751301645	140.723863483927	2052.00587794424	1084.86231246361	153.001327222897	1515.21148326378	484.333613030917	136	706.730581508378	1117.71329004542	173.449999887741	1445.48853151798	639.2468206032	149.134876927986	867.334118861932	943.345818597489	188.315122959755	1155.62993114164	1159.47738103749	188.742280163034	1869.39370892935	1258.2809661531	148.905846523204	1530.95430229586	946.667742336251	177.852216862506	1822.09460362552	1209.38247532783	137.640039111242	2097.98674141865	808.192787144894	217.415669258532	1530.64955081666	1060.46359271409	141.419699016263	1662.76103460843
533.287915418416	142.325317740137	862.10736476656	845.241971651402	250.383065826991	1048.8706657889	592.109938358193	151.685962689221	842.963542308394	1227.03563911245	164.356811444749	1499.2917240612	1198.75317741625	140.683912006441	2051.78468972872	1085.96303201086	153	1515.76958995136	484.47891063873	136	706.782554143216	1119.11953110619	173.388029688479	1445.98342365239	639.344033710744	149.126964104483	867.480868118235	943.50256258496	188.20201132925	1155.13702215585	1159.50344131324	188.674187261648	1868.94138209532	1258.58309774922	148.875138566887	1530.59551758574	946.351142754768	177.83871212194	1822.03115035191	1209.1750808396	137.639603668036	2098.22940491611	807.775906718798	217.346080751987	1530.35925322003	1059.97754998766	141.382145688931	1662.60439504409
533.514810114383	142.33729344219	862.590939034027	845.406294284978	250.310276266542	1048.98244905167	592.169585631401	151.656177446182	843.460253218829	1227.55294375632	164.33729344219	1499.98526655428	1199.0383713115	140.660583217222	2051.77978273751	1086.96554485126	153	1516.63984471647	484.558511768803	135.998672777103	706.838439360832	1120.27207076094	173.339687930007	1446.7667044186	639.367044991174	149.124454348275	867.546702483094	943.699186841587	188.102663425828	1154.48790622199	1159.41068964585	188.614087438572	1868.28487973977	1258.89125779633	148.84537917001	1530.09968239732	946.039719033265	177.814932899984	1821.63737279467	1209.00456829705	137.639878595067	2098.07257606992	807.393975760027	217.273863596185	1529.84711431082	1059.58678316004	141.355310498565	1662.26259663896
533.698722743328	142.338106715335	862.917466057329	845.574470635451	250.258787101887	1049.07369025699	592.128238676404	151.615461723136	843.768275428451	1227.94666255039	164.306613010723	1500.47701965366	1199.09345789029	140.653395753487	2051.97219715628	1087.77948843015	153	1517.76996586496	484.562288289807	135.995349747749	706.899339991308	1121.02687403795	173.301771879731	1447.73621294422	639.297770093867	149.124861433113	867.519174512849	943.902820851326	188.021073024785	1153.75286464182	1159.18087133575	188.568809376654	1867.45659875449	1259.16753494862	148.820383356211	1529.53419765206	945.770631657474	177.775964386752	1820.91841127804	1208.94781635098	137.632403786447	2097.57414324221	807.074974004283	217.201213163101	1529.09360872824	1059.34534298493	141.335020522302	1661.74006335031
533.83868069754	142.325724824974	863.068280124842	845.736097540199	250.227524858941	1049.11592694054	591.993897453282	151.566696939312	843.849236697822	1228.22262636343	164.268422033417	1500.73582547257	1198.88610515167	140.65654789727	2052.28831734089	1088.34810488545	153	1519.06281450972	484.489612835181	135.988250197392	706.95762227235	1121.30372589603	173.269301257313	1448.75169520436	639.130987569258	149.125647181409	867.384721434835	944.077837331962	187.959102825523	1153.02124699007	1158.80667868438	188.542106344095	1866.48473828096	1259.3770692757	148.802371724114	1528.96857135793	945.578051719776	177.718936522225	1819.92639089703	1209.07254871317	137.608624564491	2096.84081442001	806.835774256516	217.133487791833	1528.11040584975	1059.29070420562	141.316437764798	1661.06302035004
533.936093252606	142.300701486325	863.045442820075	845.883375517597	250.213071558936	1049.08463150415	591.78341828894	151.512899383587	843.69180974038	1228.40045747577	164.227527558715	1500.75617138544	1198.42009509458	140.66163929289	2052.61156641601	1088.65297568558	153	1520.38881312991	484.349230037254	135.976220778044	706.998284395565	1121.09561334754	173.237269206585	1449.65519994269	638.873210488266	149.123109969924	867.137085297732	944.189292919603	187.916645066599	1152.38307954306	1158.29344416834	188.534400123434	1865.39982348455	1259.49108486208	148.791858102539	1528.46500745618	945.485937745424	177.643999928512	1818.75122387633	1209.42558255869	137.563626119313	2096.00821898178	806.681845679274	217.076364147842	1526.93769141973	1059.43962752529	141.296523046797	1660.27553877344
533.996272793098	142.26491563227	862.869509910174	846.009623873121	250.209373340893	1048.96042353339	591.518119385553	151.45814764768	843.31264968438	1228.50132200878	164.18761264307	1500.55001763714	1197.7324088125	140.659628009667	2052.80412570714	1088.70975457304	153	1521.60240928383	484.156528861012	135.95927654881	707.005762816896	1120.46518430995	173.202278528136	1450.29436866455	638.546417528909	149.115224601697	866.784646414593	944.214241841161	187.892080096347	1151.91680376806	1157.66799526619	188.541328857794	1864.24149292275	1259.49792834033	148.785971669255	1528.068289909	945.502011353683	177.554579606586	1817.50435582517	1210.01733233584	137.497544013915	2095.22229864078	806.604348515206	217.034999967817	1525.64034693168	1059.77863162678	141.275185256861	1659.43346194392
534.024829735403	142.221407497842	862.570589491798	846.108016724151	250.209378078494	1048.72605568755	591.222523428187	151.404696942224	842.748612503063	1228.54235895743	164.150753626262	1500.13701903985	1196.88585102595	140.645030379215	2052.72878126279	1088.56574810545	153	1522.56266384697	483.932865598736	135.938843073884	706.964823984231	1119.52864472185	173.16356636017	1450.54677259375	638.185596156764	149.101082211157	866.351966504329	944.143815144124	187.882867505224	1151.66409969385	1156.97587860685	188.554667519964	1863.05598893549	1259.40300729302	148.780204079396	1527.79650035093	945.616923939241	177.456820424783	1816.2907515112	1210.81718505387	137.415575782932	2094.60374012639	806.580989377684	217.011650548374	1524.29204805016	1060.26546058166	141.255869119543	1658.58478777975
534.034189383814	142.173988939881	862.187561559906	846.178017183005	250.206814674564	1048.3720898554	590.924084473651	151.356095850952	842.057322466317	1228.54537840952	164.117482266015	1499.54796946333	1195.95796213968	140.616620563771	2052.28513240504	1088.28734712081	153	1523.161369358	483.701289512958	135.917596325812	706.867577977184	1118.43591725517	173.123127125378	1450.350429296	637.835775662879	149.082403674188	865.882165904166	943.990271306864	187.884775398303	1151.62504596604	1156.27796446471	188.564315692235	1861.90234929082	1259.23177234001	148.767799471359	1527.63687016811	945.799282056312	177.358366466975	1815.18735195445	1211.75372906736	137.326610904502	2094.22374753895	806.581755674732	217.002018524133	1522.96255969174	1060.83094948421	141.242902725092	1657.7595071012
534.03885761614	142.127777377629	861.766648681692	846.222758848318	250.197628275886	1047.90070528853	590.652497276906	151.316971373312	841.312205589271	1228.53144664058	164.089708372233	1498.82679113086	1195.02916824409	140.579686051439	2051.43809259295	1087.95086754812	153	1523.35073012868	483.483074807025	135.898917788843	706.718957340017	1117.34601663809	173.084936148072	1449.72521273736	637.545920088934	149.061156926116	865.433252953789	943.790681723851	187.894267536593	1151.75846848361	1155.64651323925	188.560818718398	1860.84506216747	1259.0312836083	148.744828715374	1527.55516403484	946.009148200696	177.265715836247	1814.23089954703	1212.73132170515	137.239818835924	2094.09541615628	806.575070732568	216.997981475867	1521.71074663059	1061.39260566458	141.238491613027	1656.96330897664
534.054692118444	142.086263370969	861.357250935617	846.251408518266	250.179616643789	1047.32866972382	590.435712824876	151.290540626533	840.594617566144	1228.5222110086	164.067134401264	1498.03113934298	1194.18056139946	140.541323295573	2050.23196306893	1087.63770864059	153	1523.15486762394	483.297859780258	135.8861026212	706.535308051155	1116.41259320436	173.052473253798	1448.78323809003	637.364218566281	149.04072345119	865.070608951794	943.605838801967	187.905846523204	1152.00639182831	1155.15673004209	188.53772911899	1859.95666172862	1258.86794893321	148.708485446204	1527.51815026808	946.204388951159	177.185067100016	1813.42022195019	1213.65049262454	137.163306402193	2094.17171470435	806.537666128735	216.988349451626	1520.58043312236	1061.87125139759	141.242364329352	1656.17504958636
534.099278345275	142.052473253798	861.010561712712	846.279162187951	250.155948052887	1046.69042341947	590.298051720833	151.279736254878	839.987675381074	1228.5432478816	164.052473253798	1497.23248381162	1193.4866051216	140.511156813857	2048.80305637991	1087.42735892628	153	1522.68300761031	483.162119506437	135.881540282327	706.347045627096	1115.76764290255	173.029756697104	1447.73013841004	637.329629631645	149.023779221956	864.857040183559	943.517793347296	187.915063851928	1152.32381734288	1154.87985454328	188.493160822608	1859.31204812086	1258.82474658448	148.661120535965	1527.51456502307	946.355086770939	177.120934877959	1812.73424331601	1214.43033916646	137.103990648725	2094.37763674184	806.462207719185	216.965000032183	1519.6085027286	1062.20595906272	141.251947509506	1655.36411604347
534.186595808263	142.028429474207	860.782379015664	846.322523249696	250.13083890826	1046.04129705561	590.254263214617	151.286172028849	839.56988890373	1228.61881418351	164.048885666809	1496.52346461725	1193.01206961424	140.495539807521	2047.3610042631	1087.39358882248	153	1522.11377955422	483.089976029529	135.8861026212	706.196252401273	1115.51451783395	173.017727277756	1446.83607169176	637.466979820032	149.011749802608	864.846429616399	943.619680601035	187.91855309762	1152.71248024698	1154.87059271472	188.431452481208	1858.99151615061	1258.98834217962	148.60809280797	1527.58272651768	946.458613763798	177.075130400544	1812.16040901099	1215.03661436583	137.063100981196	2094.64673410934	806.363056339979	216.924963075055	1518.83179105935	1062.37478234311	141.261680516295	1654.51073135867
534.327738383238	142.013077025505	860.720014878399	846.401448223228	250.111880754552	1045.44885623081	590.309422035362	151.306416569761	839.400268777141	1228.77324834258	164.058450728946	1495.9981718744	1192.80853813186	140.497893647212	2046.14987477857	1087.60014224263	153	1521.66350287624	483.09384296722	135.898917788843	706.12933265826	1115.72507848172	173.016400054859	1446.3911621084	637.781333575429	149.004650252251	865.079018664521	943.992656840431	187.916391074825	1153.2381156421	1155.15604715265	188.360484245342	1859.07211701597	1259.43201184532	148.557845322341	1527.81657189459	946.537768489722	177.049933272966	1811.72103610664	1215.4871313984	137.041506499712	2094.96693222399	806.270708748697	216.871162460418	1518.29825442627	1062.39689396941	141.267886121038	1653.63092015395
534.529254276663	142.005977475148	860.861262938062	846.535160993887	250.108640900976	1044.98587385417	590.456080349053	151.337669405874	839.513883480288	1229.02747110971	164.083534456123	1495.74734091863	1192.9103258764	140.51833268436	2045.40737153299	1088.09501701273	153	1521.54789467581	483.184123727691	135.917596325812	706.192563156013	1116.43391065307	173.02643366775	1446.65084763546	638.261394944423	149.001327222897	865.575226330232	944.693652709376	187.910496775454	1154.01402096161	1155.73215618529	188.290799563424	1859.60952304217	1260.201619303	148.51886859674	1528.34019575111	946.641727467034	177.046156751962	1811.4770281279	1215.85354810242	137.036856247461	2095.38809965573	806.229403955532	216.811863862404	1518.06205141917	1062.33389375738	141.267886121038	1652.77932340244
534.790300667378	142.005977475148	861.22532285611	846.738451856442	250.128930877239	1044.71934929959	590.674011234496	151.372425751312	839.914266640708	1229.39298638782	164.1239101739	1495.84153777598	1193.32616798571	140.551067377179	2045.31127204317	1088.90048783196	153	1521.9355735281	483.367080556289	135.938843073884	706.423459199381	1117.63088557564	173.045373703441	1447.78060671425	638.880164407714	149	866.337835482002	945.738253116585	187.907344562098	1155.17324602055	1156.5617730542	188.234217324461	1860.63318695762	1261.300552013	148.499671302846	1529.28433065742	946.835022517979	177.064428204093	1811.53004574941	1216.24681697273	137.046700926337	2096.0317361239	806.285178973553	216.757220323815	1518.18252610244	1062.27635901159	141.261680516295	1652.05534663955
535.103275450837	142.013077025505	861.805613150307	847.01974679415	250.180243124479	1044.69549155826	590.936114914085	151.406456667409	840.570795092921	1229.87248058239	164.178661909808	1496.31556492635	1194.03422967407	140.59098542131	2045.94832548471	1090.00526844334	153	1522.91747135302	483.643779177187	135.95927654881	706.844768114193	1119.25968590198	173.074233951621	1449.82254546535	639.60075726498	149	867.342081820937	947.091978668549	187.914532095406	1156.81705944176	1157.57782786789	188.200789999806	1862.117336436	1262.68420317818	148.504988459969	1530.73043803756	947.179352300299	177.103990648725	1812.00590722084	1216.78491080409	137.068461624161	2097.06940228374	806.477781270717	216.718347452106	1518.71874304744	1062.32280122852	141.251947509506	1651.59062354346
535.457289468158	142.028429474207	862.57340039138	847.381648217524	250.267297050918	1044.93621907696	591.211309923236	151.434775510561	841.429944607531	1230.4602085017	164.24553445321	1497.16686049713	1194.98184987507	140.631298866692	2047.30059758578	1091.36358847917	153	1524.49455655365	484.006448429039	135.976220778044	707.462534715469	1121.21916766151	173.112160371292	1452.68812856492	640.381701523837	149	868.542351823322	948.677202139396	187.939991011272	1158.97707224346	1158.69556899008	188.197187353713	1863.98439944413	1264.26544498034	148.535815259709	1532.68601868826	947.725215368692	177.16463362509	1813.03115035391	1217.57605089278	137.098803729047	2098.69442958245	806.836588743119	216.706048667949	1519.7211019758	1062.56526903127	141.243691552249	1651.53340298897
535.838751362801	142.052473253798	863.48066054908	847.823686368101	250.389973743559	1045.43359101031	591.474654960802	151.455615173796	842.422402549967	1231.14811840387	164.319143824026	1498.35747390595	1196.09696270541	140.667523292438	2049.25628567174	1092.90531190467	153	1526.58699991359	484.441508293941	135.988250197392	708.265452040269	1123.38305075464	173.159532940102	1456.18256645913	641.186353740821	149	869.868608391137	950.389944236285	187.988766047028	1161.59200594695	1159.83245114774	188.225246376831	1866.09870350964	1265.93829237595	148.587921190905	1535.06046550966	948.497010167674	177.244469088175	1814.70642030392	1218.68744112475	137.137938458618	2101.08109039095	807.374594084325	216.729667235788	1521.22058177198	1063.06616906016	141.243141865278	1652.02321107751
536.237463984877	142.084936148072	864.472644739412	848.343336637483	250.546088012785	1046.16128426664	591.712211035668	151.46813235045	843.480794803216	1231.93066955816	164.395396437723	1499.83136455211	1197.29688664225	140.698228120269	2051.64733950168	1094.54777122046	153	1529.06653508616	484.930263566705	135.995349747749	709.229965142102	1125.6161747542	173.216560804629	1460.05568189654	641.983528383378	149.001327222897	871.246627596697	952.118107212131	188.063551413933	1164.52155768935	1160.91497195658	188.283443114002	1868.30394231259	1267.58949717504	148.654798471908	1537.69337542613	949.489445109457	177.339687930007	1817.0850175979	1220.13348044434	137.184377527094	2104.35139895472	808.08883992737	216.796689964964	1523.22755642592	1063.85056638709	141.254652527701	1653.16987927692
536.648414736543	142.123127125378	865.497141084035	848.942869152308	250.729840959074	1047.08031264697	591.925095426992	151.474310866219	844.548740454963	1232.81227052726	164.468945623596	1501.52620274571	1198.50056671864	140.724814743139	2054.2846783962	1096.2070355406	153.001327222897	1531.78713643074	485.450861956182	135.998672777103	710.325577945496	1127.79387915215	173.283093342763	1464.04774619091	642.755157957428	149.005977475148	872.606545381841	953.761861625472	188.162065413986	1167.57298087309	1161.89445968607	188.364343942123	1870.44411856885	1269.12390148934	148.728773694154	1540.38097092849	950.666386940258	177.445332480036	1820.15522784454	1221.87447046882	137.238067372735	2108.54233244757	808.959854018645	216.911276916687	1525.71970831217	1064.90169469204	141.2796483415	1655.03075711763
537.071695699103	142.162239137273	866.515209003258	849.626295560804	250.935323603567	1048.15083936431	592.126875150072	151.476468151413	845.587407152513	1233.80056121014	164.53545063688	1503.38628756472	1199.6407862935	140.749379713391	2056.9947103849	1097.81313440125	153.004650252251	1534.61345758629	485.984723871443	136	711.519680813688	1129.81561232427	173.358366466975	1467.93090835425	643.494806461917	149.016400054859	873.900859705925	955.250190121377	188.278531003891	1170.54155946771	1162.74926205428	188.459474870577	1872.40422541369	1270.47762684574	148.802231838163	1542.92408217562	951.967626015295	177.554667519964	1823.83301638241	1223.82469189568	137.298964478817	2113.58595410812	809.953156946347	217.071786553399	1528.63898467608	1066.16709968838	141.314581485154	1657.59397102717
537.511377757555	142.196301052989	867.496874630027	850.400050914524	251.155403878512	1049.33186553687	592.340096914729	151.476301865502	846.567745556385	1234.90649574418	164.59115127851	1505.35577557892	1200.66631529698	140.774463440568	2059.63355703292	1099.30782685809	153.013077025505	1537.43078481015	486.514740186465	136	712.77604465524	1131.60427613997	173.440770141163	1471.52395653985	644.204460455786	149.036856247461	875.110071122474	956.542495819161	188.404609028846	1173.25053588714	1163.48244188985	188.559229858837	1874.13160452603	1271.61982152604	148.870895399474	1545.16787899617	953.314594692266	177.660312069993	1827.95782115103	1225.86645094623	137.365470824507	2119.29265232916	811.022394685461	217.269569970806	1531.88205292894	1067.56894805124	141.351702497766	1660.76712809129
537.970878065529	142.220869151727	868.419773844015	851.267066789028	251.385502776817	1050.58342837597	592.586790646184	151.476040436352	847.466722962692	1236.13219176093	164.635228342816	1507.37755895721	1201.54387135229	140.801166473127	2062.08627672983	1100.64773882933	153.029756697104	1540.13996307187	487.030602062863	136	714.05632145098	1133.10226997657	173.527736154224	1474.68447570551	644.890022331353	149.069152925397	876.243632282854	957.623451437994	188.530888298008	1175.56904035031	1164.11234339636	188.655749731121	1875.63644484033	1272.54702523895	148.932865598736	1547.01950487016	954.624640956346	177.754203688928	1832.30087331595	1227.87271214747	137.434792666016	2125.36070621246	812.115034779153	217.487452060954	1535.29612570935	1069.0206298671	141.381114161231	1664.37590479918
538.449186614595	142.232445009852	869.258813875711	852.222584993375	251.620474698331	1051.85924202855	592.883059445799	151.474832056879	848.25388691401	1237.46081474854	164.667779150469	1509.37659291392	1202.24576091799	140.829067028529	2064.25260483675	1101.78828366511	153.057123506049	1542.63923242929	487.522442518207	136	715.314281046719	1134.25311772047	173.61582444608	1477.28476471213	645.556489178353	149.113630179914	877.322843856854	958.493305188608	188.647235044488	1177.4136962241	1164.66351124747	188.742715744182	1876.96891490417	1273.27412206801	148.986922974495	1548.4406508355	955.817774210094	177.830716122659	1836.57932072113	1229.72033525505	137.50157729604	2131.39405243692	813.172308846084	217.702081879672	1538.67884361721	1070.4376666482	141.394596233747	1668.17193007048
538.937955208907	142.231291731438	869.980270720005	853.252285801947	251.856345924096	1053.10736463366	593.234846574497	151.471087849686	848.893583246686	1238.85860736519	164.690761039793	1511.26221096714	1202.75096586172	140.856345924096	2066.02488212772	1102.68381806097	153.09668595068	1544.80640578513	487.981470667176	136	716.49439802263	1134.99991797676	173.699708298286	1479.1839670707	646.201033574346	149.168667045158	878.365619600839	959.147036379188	188.746230407324	1178.73468329542	1165.14657132444	188.816687837942	1878.18402328004	1273.81113557679	149.034054674806	1549.42822370098	956.824371004003	177.885586771564	1840.48373631615	1231.30616532933	137.559774033212	2136.94139620754	814.136178633723	217.885379723992	1541.79090634868	1071.75106232793	141.386977926464	1671.85885991563
539.420374973289	142.220080274945	870.547218674209	854.33087087928	252.088455618389	1054.27445760125	593.63483334376	151.464409477168	849.352616859458	1240.27055807126	164.707440711392	1512.94228242655	1203.03730809029	140.879863288191	2067.28569737329	1103.28330962091	153.146906347334	1546.49745426513	488.395283784006	136	717.533417813665	1135.2860859389	173.773332658634	1480.22598882007	646.811216579087	149.230186811682	879.369510481227	959.570429731184	188.820962126508	1179.49636621216	1165.55865626958	188.8760898261	1879.30677895225	1274.16013068119	149.073976900934	1549.98480132067	957.587182142621	177.917770049098	1843.70526459815	1232.54737068898	137.603276477323	2141.54579556131	814.949447143259	218.009809306133	1544.37734827768	1072.90302319241	141.357218529586	1675.12059579918
539.869819068691	142.202962588463	870.920707742098	855.419833498688	252.310882492116	1055.30957732095	594.062970302562	151.453588437293	849.606931011787	1241.62337379561	164.721579627164	1514.33190213039	1203.08857932088	140.896546018702	2067.91605339049	1103.54247119092	153.20428981136	1547.56198970839	488.747240924861	136	718.366353590228	1135.07110687605	173.830716122659	1480.25771876918	647.365294549972	149.293863793829	880.300808622271	959.735150030328	188.868907099965	1179.66269237645	1165.87650120469	188.921115796128	1880.30379241532	1274.30660620789	149.108181761514	1550.09669039366	958.064624824722	177.929519851706	1845.98441904513	1233.38637809909	137.628805947527	2144.81175227015	815.56105752166	218.055336808059	1546.21019835519	1073.85141761502	141.309133066754	1677.67020024469
540.253547097163	142.184284051494	871.074225351802	856.472777465213	252.516396136228	1056.17804227724	594.486919055864	151.440228666562	849.657769288777	1242.83707263511	164.73523732285	1515.38103029559	1202.90434839121	140.901986826423	2067.832013599	1103.43887184203	153.263435454253	1547.88296100221	489.019615053661	136	718.937591161191	1134.35648563898	173.866457801858	1479.18607410348	647.83350509572	149.354940047477	881.093860789575	959.612657863147	188.88774879436	1179.19555264801	1166.06585555297	188.951971850766	1881.08403999628	1274.23106873762	149.13634937786	1549.72805505486	958.231895936617	177.925766048379	1847.14099726806	1233.79038679899	137.637054038698	2146.45620491349	815.932794671509	218.013656585061	1547.12105394595	1074.56503530143	141.250620286609	1679.28603311773
540.538949990024	142.167339822261	871.00342102841	857.438930710167	252.69708018288	1056.86759474109	594.86775170047	151.427061027905	849.535308933075	1243.83262038807	164.749807428452	1516.08672586735	1202.5106665719	140.893446652767	2067.03160409231	1102.99176070253	153.318345657877	1547.42854836631	489.196880612544	136	719.21541538708	1133.20637955858	173.878373820805	1477.03987779918	648.187115475933	149.409691783384	881.667602715066	959.194042626093	188.879329679676	1178.0738876234	1166.09771516796	188.970243302896	1881.52194772846	1273.9278258543	149.159183168863	1548.83973099467	958.079716929269	177.912946073561	1847.115099678	1233.74716959066	137.632774237536	2146.37131529145	816.040522941374	217.892153316831	1547.0441817444	1075.01776578535	141.190261526642	1679.85776120824
540.699844748945	142.153555464955	870.728985127239	858.276194598129	252.846862185744	1057.38990096025	595.167571914442	151.415686413986	849.293840700997	1244.55077454016	164.763519670196	1516.49122997723	1201.96926617171	140.86836292559	2065.61864736019	1102.27126227753	153.364405993322	1546.27645267393	489.27392196508	136	719.201467996027	1131.7583789932	173.86836292559	1474.00734197963	648.40597057509	149.45453656802	881.947389249247	958.506052189425	188.846068571361	1176.31948011824	1165.96007605626	188.976500394784	1881.49833002028	1273.41867829164	149.175054304917	1547.41845515764	957.623725693782	177.897590565946	1845.96975239789	1233.27949180354	137.622405309086	2144.63147165883	815.88724928261	217.713233856644	1546.02503368617	1075.20108435299	141.13740940187	1679.39219933555
540.724243502858	142.142326853007	870.295310426365	858.957531178696	252.962083728528	1057.77813124162	595.356661744986	151.406446367586	849.000687787473	1244.96211446223	164.773104529038	1516.67206900368	1201.36852197767	140.828289542228	2063.81444344941	1101.38997626996	153.399269203673	1544.62507363638	489.256987025214	136	718.935026180591	1130.2053101617	173.84336237419	1470.43909245614	648.482639504353	149.486229654513	881.886097036838	957.62209027081	188.792931333662	1174.01704053497	1165.66916685759	188.971570525793	1880.9391466361	1272.76493297345	149.183485885345	1545.50117615527	956.900938402697	177.884775398303	1843.88334198022	1232.43778948296	137.615209513782	2141.48648645945	815.499242618593	217.508502368064	1544.21755870229	1075.11901322268	141.10003169771	1678.0082634267
540.61639056131	142.131536743178	869.762061013617	859.476334975642	253.044656540026	1058.07550697924	595.417966819049	151.398224468861	848.719443197829	1245.07087136353	164.776226244613	1516.71796428613	1200.81143090649	140.77633483784	2061.91706196971	1100.48496337787	153.421291400219	1542.75545812054	489.166080478823	136	718.486511667779	1128.76012202587	173.811863862404	1466.79160389118	648.428991189981	149.502100790566	881.484356932469	956.656473024237	188.724792025463	1171.32464856254	1165.26972758586	188.956622103016	1879.85032509853	1272.06223825247	149.183485885345	1543.1934476727	955.974428208319	177.875562807179	1841.11098887708	1231.30945989991	137.616889277265	2137.30769858849	814.927460083096	217.313001519051	1541.84804889586	1074.80128829653	141.080902728005	1675.90245076081
540.396067483843	142.118547631051	869.190214072577	859.845586872919	253.099493130399	1058.3235567301	595.349631718565	151.386969664469	848.493405036926	1244.911442703	164.771930966684	1516.70365636563	1200.38838899296	140.717863291103	2060.23316043464	1099.68120319159	153.431446918986	1540.96227004214	489.03036977831	136	717.941308075801	1127.60655376983	173.782365964249	1463.52827293333	648.272805383419	149.500345852608	880.791711131375	955.739135540828	188.650148219657	1168.46062560535	1164.82284033457	188.934192821633	1878.32269045045	1271.41851987035	149.175054304917	1540.66488274374	954.926179666898	177.869702566341	1837.94878058555	1230.01243062001	137.631031667806	2132.53375015948	814.240835621105	217.155949301456	1539.18106446154	1074.3011931325	141.078884203872	1673.3118230016
540.095700661761	142.102409434054	868.626760063506	860.093652441542	253.137155410096	1058.54369195055	595.163620574107	151.371189500706	848.331901662565	1244.54072298528	164.762285922899	1516.66001309786	1200.15604873353	140.66111227397	2059.00345930305	1099.06116790793	153.432801666733	1539.48182023401	488.880132001684	136	717.38150712692	1126.85300451829	173.761665428379	1461.01209509074	648.054545833173	149.480345654965	879.897811584211	954.993464583416	188.576171388296	1165.66837764956	1164.39779825475	188.905846523204	1876.51464305526	1270.93448024596	149.159183168863	1538.11770244313	953.853050390767	177.863388764279	1834.67971865851	1228.6857042064	137.657243032414	2127.59115871718	813.517304133542	217.056010941403	1536.46659912497	1073.69628391661	141.088381149336	1670.46544405274
539.750887515207	142.082403674188	868.09327789173	860.253739224473	253.166012599364	1058.72801071189	594.880728716694	151.349167720016	848.207342138185	1244.01952004892	164.750706936288	1516.56284209267	1200.12373594736	140.612332500614	2058.33066203638	1098.64538980998	153.429020338555	1538.42245976253	488.741392469627	136	716.864253473117	1126.50644161419	173.751242848668	1459.41250900254	647.817098116074	149.442940425955	878.910479866158	954.499145385654	188.510708814856	1163.17021556145	1164.04849128937	188.875138566887	1874.61580083095	1270.66959357902	149.137676600757	1535.74714664349	952.852775216725	177.853093652666	1831.54795727427	1227.47054496645	137.692873039526	2122.851706306	812.830981194616	217.01913476914	1533.91017750065	1073.07456398207	141.103736656951	1667.56164641179
539.39593221216	142.061156926116	867.585188259043	860.354668342566	253.194706631206	1058.83897874137	594.528855574502	151.322991102954	848.063921226144	1243.40387031839	164.742969735956	1516.3398104119	1200.24789279983	140.576428079845	2058.16177396065	1098.38536906007	153.423544257363	1537.74427515055	488.630388239197	136	716.415135888132	1126.4715864791	173.748164162582	1458.67305988481	647.594948972884	149.390562813679	877.930114302745	954.274599415419	188.460941979425	1161.12431293953	1163.80150283064	188.84537917001	1872.80028617399	1270.62655836752	149.112832013765	1533.69653699311	952.008209236025	177.836962696578	1828.7336284519	1226.48259958147	137.73198505142	2118.59187267241	812.23921059249	217.038256128166	1531.65110521874	1072.51764260819	141.118547631051	1664.74732585142
539.060456183909	142.04072345119	867.077819628094	860.42004856092	253.226741810419	1058.82059519328	594.140237570951	151.295882317962	847.838455942541	1242.74061308344	164.74386368157	1515.89567135157	1200.44619248007	140.556160821257	2058.3082898616	1098.18141548518	153.42076994352	1537.27452546206	488.550372463232	136	716.029067295752	1126.58204199312	173.747361189258	1458.53639489493	647.409018576658	149.327139961249	877.03334370237	954.270892525695	188.430087603476	1159.59308097981	1163.64724563205	188.820383356211	1871.19390549037	1270.74314853421	149.087053926439	1532.02897837321	951.374125755667	177.815715948506	1826.34262494223	1225.7947383421	137.76860793733	2114.97790950119	811.773898198751	217.097831839611	1529.75201149906	1072.08417031033	141.130209520281	1662.11341383802
538.763869037455	142.025106444853	866.541616893519	860.460855573164	253.260803726135	1058.61702053101	593.748083914895	151.273095003344	847.481861589759	1242.06161093826	164.755893100918	1515.14897763823	1200.62087524322	140.549848351601	2058.50777329576	1097.91265100973	153.422070973972	1536.76779714489	488.495074653065	136	715.679652776079	1126.65118134039	173.742809219781	1458.62627729417	647.261835253835	149.257719836966	876.258110139189	954.383473563144	188.418458028056	1158.5399630174	1163.54255191555	188.803698947011	1869.85269915498	1270.90915959726	149.062484149013	1530.71905801212	950.968026484441	177.792734892699	1824.4073253363	1225.41985810386	137.798100342837	2112.06447674194	811.433751332867	217.176381527814	1528.20530139683	1071.79422608223	141.139003823654	1659.6980376759
538.517207701861	142.016400054859	865.954386030584	860.479937210683	253.291121434657	1058.19042920662	593.385396904164	151.257190780219	846.978594022898	1241.39166871506	164.779042934895	1514.06312946068	1200.68674538041	140.554929377825	2058.5090313649	1097.4763270187	153.427413498919	1535.98575271229	488.452624760227	136	715.33741040956	1126.52716325969	173.730779800433	1458.5670214003	647.142864343321	149.190261526642	875.613428405424	954.486416352111	188.423418827092	1157.85473823624	1163.42784949948	188.797835577687	1868.77579787326	1270.99753779323	149.04072345119	1529.68026553933	950.767877816893	177.773270607435	1822.90018586683	1225.31501824301	137.817581783556	2109.81374304402	811.190800093954	217.250814689744	1526.95206983636	1071.62927797842	141.146455914597	1657.49783062582
538.322495508434	142.017727277756	865.31563070519	860.475209568409	253.310198431789	1057.54098966485	593.081343842549	151.251418452758	846.358262187401	1240.75253842097	164.810536639507	1512.67367039708	1200.59351046374	140.566962271942	2058.15062917	1096.81823453928	153.436664838283	1534.7768284079	488.411747648494	136	714.984144627572	1126.13758813416	173.711287990319	1458.09749745562	647.036433241156	149.13163707441	875.087647785077	954.467618060607	188.439560152575	1157.39919271986	1163.2471742598	188.803698947011	1867.93194823795	1270.90240121606	149.023779221956	1528.80765653458	950.724217392321	177.762992651276	1821.75768554026	1225.3984320804	137.827651892254	2108.13060736096	810.998741872747	217.301960858588	1525.90906723985	1071.53964296585	141.155310402913	1655.48856574378
538.17552321035	142.029756697104	864.650783169858	860.441289549404	253.310201560275	1056.70689896595	592.858310234291	151.255293256535	845.690456107601	1240.1635252154	164.844689597087	1511.08672887707	1200.34668862655	140.582151563218	2057.41059556061	1095.95929966691	153.447291790686	1533.12945942503	488.367172111203	136	714.623589294041	1125.51794885556	173.688334459362	1457.15404208411	646.929210397426	149.088002278362	874.66733864369	954.266882136844	188.461561649325	1157.05855546376	1162.97055631137	188.820383356211	1867.29272008889	1270.57654222252	149.011749802608	1528.02528383748	950.775778104158	177.76631568063	1820.90907321451	1225.57686135272	137.83178338758	2106.90503059819	810.80819915053	217.316235524401	1524.99679598394	1071.4642197765	141.167339822261	1653.64702605272
