Light	Light	Light	Light	Light	Light	Light	Light	Light	Light	Light	Light	Light	Light	Light	Light	Light	Light	Light	Light	Light	Light	Light	Light	Light	Light	Light	Light	Light	Light	Light	Light	Light	Light	Light	Light	Light	Light	Light	Light	Light	Light	Light	Light	Light	Light	Light	Light
Optode1-730nm	Optode1-Ambient	Optode1-850nm	Optode2-730nm	Optode2-Ambient	Optode2-850nm	Optode3-730nm	Optode3-Ambient	Optode3-850nm	Optode4-730nm	Optode4-Ambient	Optode4-850nm	Optode5-730nm	Optode5-Ambient	Optode5-850nm	Optode6-730nm	Optode6-Ambient	Optode6-850nm	Optode7-730nm	Optode7-Ambient	Optode7-850nm	Optode8-730nm	Optode8-Ambient	Optode8-850nm	Optode9-730nm	Optode9-Ambient	Optode9-850nm	Optode10-730nm	Optode10-Ambient	Optode10-850nm	Optode11-730nm	Optode11-Ambient	Optode11-850nm	Optode12-730nm	Optode12-Ambient	Optode12-850nm	Optode13-730nm	Optode13-Ambient	Optode13-850nm	Optode14-730nm	Optode14-Ambient	Optode14-850nm	Optode15-730nm	Optode15-Ambient	Optode15-850nm	Optode16-730nm	Optode16-Ambient	Optode16-850nm
405.295507906093	142.799136608139	758.099259854686	1303.7952756675	179.19066861148	1969.5925919421	1557.16734434116	143.061156926116	2627.67822480129	1872.72765034904	158.917596325812	2917.69231846923	1342.57228755136	132.338089559881	2606.09238704597	1297.71343454696	147.837760862727	2021.32066067124	722.418036835531	130	1285.43311550587	917.174821749769	145.559229858837	1200.84786267198	927.520302231315	143.447180893594	1692.95576300112	640.046943235777	159.857128972618	779.94567131695	1092.18215437121	155.032183277535	1752.99297242273	587.376688870593	148.061156926116	683.423175026971	1188.85439071256	144.110833148395	2248.20733404811	1305.93573430292	136.951393949931	2243.19794137783	964.317213141411	142.964470975436	2007.77398582025	1070.7076901753	147.106182896144	1662.02783199686
405.41333837373	142.824945695083	758.286641036599	1305.09570277528	179.35118374084	1971.75380408315	1557.58305250541	143.04072345119	2628.6458596325	1873.01896465773	158.938843073884	2918.01973837846	1343.66719483064	132.359331500779	2610.36458156642	1298.29116330343	147.878200097519	2022.86592908375	723.185101323901	130	1287.9891184575	917.964699177722	145.673127237637	1202.62876765762	928.446073889484	143.471224673185	1695.50135223157	640.700107354802	159.90024501174	781.361142366845	1093.53813643172	155.083730897085	1756.02281634164	587.741914853527	148.082403674188	684.275371836192	1189.1370928388	144.114957402811	2250.02501838775	1305.8075117662	136.955170470934	2244.07311633603	964.127810359211	142.983599945141	2008.00818513228	1070.8652502306	147.141805662347	1663.14909421922
405.594684414348	142.858194337653	758.85792176309	1306.74406465867	179.505429382142	1975.23064751113	1558.12954832923	143.023779221956	2630.61063157505	1873.39747338789	158.95927654881	2919.20737748859	1345.12096488746	132.361868781837	2615.96991946889	1298.99329124495	147.919714104178	2024.90275826839	724.146955049968	130	1291.2634905109	918.979615227707	145.774209448794	1204.87451850856	929.535654984678	143.503495158675	1698.4309385446	641.404107427355	159.951220226644	782.839048877147	1095.15028474154	155.134706111989	1759.62746709265	588.048602950388	148.101082211157	685.027688254153	1189.54920118343	144.13163707441	2251.95407947388	1305.61276931038	136.941549271054	2244.6066052975	964.029900488382	142.994022524852	2008.3632289691	1071.24702386641	147.176381527814	1664.62012849762
405.798181400583	142.893817103856	759.690598723444	1308.52158828698	179.64469776343	1979.58375581335	1558.62586265649	143.011749802608	2633.11309738188	1873.69100907748	158.976220778044	2920.82472173332	1346.75931003897	132.35118374084	2622.33067201544	1299.64616465459	147.960603771707	2026.98754499292	725.176294403694	130	1294.88965603252	920.061511479217	145.856613122982	1207.27290435075	930.667769205807	143.543630007954	1701.45152423391	642.032879809454	160.008426773254	784.159845720722	1096.89823852637	155.183481078171	1763.53248524471	588.216907565309	148.113897378801	685.530916724287	1190.05501427652	144.16463362509	2253.91432960756	1305.31640969232	136.913736629031	2244.72734973775	963.985019853479	142.998672777103	2008.75226705077	1071.84939426311	147.205513644112	1666.41849877582
405.985970825852	142.927093271276	760.649056629793	1310.22837396461	179.761132423289	1984.34411840337	1558.91682263053	143.004650252251	2635.67011835559	1873.75499410249	158.988250197392	2922.43160055011	1348.40940572207	132.334229211784	2628.80317334252	1300.09777017115	148	2028.69542939909	726.150527182406	130	1298.47638807539	921.059080554096	145.917770049098	1209.51373273148	931.714208774856	143.588893080341	1704.26828355439	642.475252400722	160.068782474308	785.137850452263	1098.64629647319	155.227965643171	1767.43598939695	588.192099661692	148.118459717673	685.682981289259	1190.61431730711	144.214168216696	2255.82051069002	1304.92061506315	136.876872874622	2244.456690292	963.967359178689	143	2009.11968216715	1072.66578408209	147.226729392565	1668.51889923717
406.131265374753	142.954626296559	761.605723519436	1311.71185115	179.851962870731	1989.08209080443	1558.90239121639	143.001327222897	2637.86090553177	1873.50210057905	158.995349747749	2923.65795041605	1349.91926925109	132.319160979481	2634.76803635645	1300.24236330483	148.039396228293	2029.70179933904	726.967015479724	130	1301.66466778051	921.84886812272	145.958493500288	1211.33565094661	932.554130494813	143.636091704668	1706.61107609748	642.654010061122	160.129776242999	785.648535582415	1100.25695242715	155.267452843755	1771.02974096649	587.953611627238	148.113897378801	685.445001321285	1191.17659841412	144.278531003891	2257.56211283923	1304.45594049012	136.83643363983	2243.87851299994	963.961657592302	143	2009.4287262209	1073.66954475841	147.238758811913	1670.85492970245
406.221452659625	142.974893555147	762.45673913833	1312.87686916447	179.916442826201	1993.43623504837	1558.54608615372	143	2639.37330620536	1872.90689642616	158.998672777103	2924.24150947	1351.1619958414	132.311677958491	2639.70359930717	1300.02739639696	148.080285895822	2029.83671795282	727.548401621622	130	1304.17092972938	922.340760263798	145.982272722244	1212.55611830007	933.082265316305	143.679441039699	1708.24727785733	642.52861490557	160.187083724265	785.635369365265	1101.59522534473	155.29991573803	1774.00680574575	587.516660054985	148.101082211157	684.83895066804	1191.67554747875	144.352506226136	2258.97370228619	1303.96476158552	136.79904869476	2243.08237018682	963.955192367529	143	2009.63130905661	1074.79730683372	147.241586843051	1673.27455779744
406.253296787693	142.988250197392	763.119799606782	1313.66982119585	179.957166277391	1997.1067661422	1557.86106348044	143	2640.00883824639	1871.98874385808	159	2924.02332804403	1352.03656511842	132.313276979933	2643.20802109567	1299.45201443568	148.121799902481	2029.07711005566	727.841894841584	130	1305.79535888807	922.476565610542	145.994022524852	1213.06903590594	933.216403798409	143.713502955415	1708.99204059682	642.096310517801	160.236936590801	785.101392170247	1102.5357723221	155.32399051724	1776.07850765729	586.924413008145	148.082403674188	683.932704058939	1192.03071469144	144.428478863954	2259.82748927029	1303.49004222456	136.767381045665	2242.11384494706	963.935319097543	143	2009.65028278248	1075.94646063111	147.236211231033	1675.52549067883
406.2306520588	142.995349747749	763.532050288072	1314.05915437824	179.977622469994	1999.82565404674	1556.89129089513	143	2639.65762664664	1870.79371265138	159	2922.91431547023	1352.45893397833	132.320878131761	2645.0040118267	1298.54622779773	148.162239137273	2027.5107061223	727.814223896757	130	1306.41705958373	922.220545192772	145.997345554206	1212.82820803158	932.90374147935	143.733833731016	1708.71241115835	641.38010706628	160.274809293176	784.090156973557	1102.97310518652	155.338620665087	1776.99119040647	586.235314728904	148.061156926116	682.818712119564	1192.14732277339	144.499713764855	2259.86179735244	1303.05302036999	136.743775768192	2240.95365325365	963.879352190718	143	2009.38280066605	1076.97684360035	147.224209336535	1677.28152994127
406.153870526299	142.998672777103	763.644911154236	1314.00657038034	179.982272722244	2001.33941315528	1555.6753558365	143	2638.27303951969	1869.35914863684	159	2920.87127704878	1352.35797863892	132.327925709545	2644.92352762389	1297.35065104443	148.196301052989	2025.27106076052	727.443316712565	130	1305.97197358016	921.54928662376	145.995349747749	1211.81653438735	932.123883267713	143.737729165017	1707.32650837516	640.416519529121	160.297383264146	782.656211179835	1102.82967098855	155.344084190483	1776.54392964194	585.507069232667	148.04072345119	681.584039817109	1191.93668907114	144.559514213177	2258.82064877709	1302.65640093266	136.727984817372	2239.51509461927	963.761002544544	143	2008.7104251196	1077.73971221982	147.207265107301	1678.19317237837
406.017788347325	142.998672777103	763.419978586158	1313.45973667545	179.97356633225	2001.40041320885	1554.23472554891	143	2635.84050832795	1867.70179849245	159	2917.86371544851	1351.67633577559	132.326601615134	2642.89388904763	1295.9022976748	148.21954192883	2022.47964307739	726.71331337106	130	1304.43458482957	920.444937289584	145.988250197392	1210.02567812574	930.896728439058	143.727098737845	1704.80895246424	639.246486702539	160.301945603018	780.84594876332	1102.07442019001	155.342124879833	1774.61590831304	584.785525837077	148.023779221956	680.289105867921	1191.3302192402	144.603536297357	2256.51478841106	1302.27449502634	136.718762798939	2237.67198988038	963.550824251442	143	2007.52892573971	1078.09778938122	147.186804107525	1677.96020379994
405.810254130622	142.995349747749	762.83188322546	1312.35277719441	179.953299073663	1999.78822579067	1552.56407373177	143	2632.36893484785	1865.81362423144	159	2913.87402708324	1350.37569347451	132.311525654686	2638.92989254496	1294.22583115254	148.227794757601	2019.20971494894	725.617358855467	130	1301.80737400755	918.898475139915	145.976220778044	1207.44579512484	929.279760820277	143.708222984919	1701.19337583803	637.908797813053	160.290278906614	778.687053117522	1100.72881687955	155.337557733787	1771.18623282816	584.097968277833	148.011749802608	678.955934203396	1190.29304286796	144.629342255816	2252.87132719787	1301.86308657793	136.713306514452	2235.29455548115	963.222751750688	143	2005.77586902322	1077.95480501468	147.163833421114	1676.39710803729
405.519103122657	142.988250197392	761.87460858223	1310.63463525361	179.921115796128	1996.35640565152	1550.64966165162	143	2627.90063336336	1863.68107057673	159	2908.91190660501	1348.451321228	132.280698854946	2633.15133871407	1292.33984266099	148.21954192883	2015.49069767875	724.159593829737	130	1298.13045335096	916.915027317621	145.95927654881	1204.07804226887	927.363212694248	143.689539710349	1696.58859503826	636.438174064264	160.26491563227	776.197596671551	1098.86938501866	155.335395780564	1766.36201169302	583.452106448031	148.004650252251	677.577228203597	1188.84087600219	144.638717588509	2247.97815257026	1301.37464354128	136.709983485098	2232.30634456776	962.763447262039	143	2003.45948131128	1077.27633694496	147.139003823654	1673.48813937376
405.136766554984	142.976220778044	760.567601784154	1308.29780663588	179.8760898261	1991.08957528674	1548.48618935531	143	2622.52667548678	1861.30580694123	159	2903.0372868777	1345.95003270849	132.237024504179	2625.7910918896	1290.27205558688	148.196301052989	2011.32950251254	722.368012351912	130	1293.49162117627	914.531483721875	145.938843073884	1199.95747098846	925.267276795803	143.679287946635	1691.19154006573	634.874578026316	160.231830077553	773.405726560776	1096.62972889317	155.339687930007	1760.39331438936	582.848024948927	148.001327222897	676.137051662667	1187.04353964229	144.633989033297	2242.08668225365	1300.77641744084	136.707012996331	2228.72108912775	962.179757429874	143	2000.66977459479	1076.10205610882	147.112832013765	1669.39842637446
404.66925878534	142.95927654881	758.959730543273	1305.40434417196	179.816687837942	1984.14692386125	1546.09817972545	143	2616.40240818639	1858.72493236709	159	2896.37981196776	1342.98013345263	132.186018359229	2617.20264399649	1288.07066111062	148.162239137273	2006.75158667571	720.301101049586	130	1288.04582812847	911.826894224827	145.917596325812	1195.17789467637	923.123369731455	143.683912006441	1685.27225640273	633.264142740311	160.197768161837	770.366466349827	1094.17913245311	155.354405787647	1753.64838826214	582.281858677211	148	674.62991671817	1185.01383509647	144.620386784953	2235.59253393248	1300.06066102479	136.704205595416	2224.67610659024	961.498786230723	143	1997.57940292669	1074.53723251543	147.087053926439	1664.45939091732
404.138732676425	142.938843073884	757.135056143901	1302.10768346678	179.744042967079	1975.89116878362	1543.56043832392	143	2609.76414689667	1856.03284607002	159.001327222897	2889.16462177172	1339.71029071845	132.134876927986	2607.83913075191	1285.81418096408	148.123127125378	2001.83119549091	718.051679401301	130	1282.01828894005	908.926501659177	145.898917788843	1189.90771809071	921.064522207696	143.70648597741	1679.15837078898	631.667664291695	160.168500828819	767.179746922003	1091.70531277149	155.380416188371	1746.58341026268	581.756441781318	148	673.081481401129	1182.89601588852	144.603035470881	2228.96612250277	1299.2538036743	136.703052317002	2220.41408986883	960.766896281238	143	1994.413184918	1072.73696890959	147.062484149013	1659.10734465385
403.582951767194	142.917596325812	755.210158379422	1298.64057785551	179.661727206268	1966.87792159864	1540.99820051483	143	2602.94111210319	1853.37227871231	159.004650252251	2881.72638486053	1336.35419826423	132.09091362322	2598.23548472765	1283.60857760253	148.084936148072	1996.72215107408	715.742824667723	130	1275.70548322754	905.994163044365	145.8861026212	1184.39555199464	919.206045759258	143.744296958853	1673.19992850223	630.15821876862	160.148747519982	763.991687412331	1089.38617441878	155.416200363738	1739.68332569481	581.282704613157	148	671.553330235702	1180.84158711496	144.587226055761	2222.67851000749	1298.41065505647	136.706224119549	2216.25010967673	960.044053291334	143	1991.41183048101	1070.87639280113	147.042050674087	1653.80629085028
403.050661125921	142.898917788843	753.324316244202	1295.29414120685	179.576957136592	1957.79546242949	1538.5791596665	143.001327222897	2596.32739485452	1850.92401559828	159.013077025505	2874.481285369	1333.14521456006	132.059777951842	2588.95364325951	1281.57907061899	148.053800476695	1991.65377327581	713.514227595624	130.001327222897	1269.4503468554	903.216807272996	145.881540282327	1178.95060722837	917.635820550244	143.792734892699	1667.72492225744	628.816108378096	160.139527180237	760.981856614002	1087.36872698829	155.45814764768	1733.39671484144	580.879582927474	148	670.134989776782	1178.98090467246	144.578708599781	2217.11488937275	1297.5949048872	136.716645020572	2212.49809229945	959.385902772388	143	1988.77914251393	1069.11352883596	147.029756697104	1648.96055005144
402.592999935037	142.8861026212	751.625243998671	1292.37590989975	179.499654147392	1949.37851265913	1536.49186752917	143.004650252251	2590.34713821514	1848.87822806078	159.028429474207	2867.88547625539	1330.30612208892	132.044829529066	2580.55301005845	1279.85297270274	148.033079726457	1986.91855753719	711.506033232428	130.004650252251	1263.61833220689	900.777961457189	145.8861026212	1173.91147026579	916.407919131314	143.844689597087	1663.00466387163	627.718625575477	160.141261487972	758.334830033295	1085.75552984012	155.501395962074	1728.08405913564	580.567631236414	148	668.92335091836	1177.41824899047	144.580730598683	2212.53382550258	1296.87121866383	136.735351428674	2209.41488751115	958.841031947798	143	1986.65190459448	1067.57457547315	147.029477080364	1644.86301224564
402.255126581253	142.881540282327	750.246433929371	1290.16202292862	179.440596417877	1942.29941447861	1534.91462725829	143.013077025505	2585.38965550653	1847.40457904829	159.053800476695	2862.36618151113	1328.02345033756	132.048606050069	2573.53330075034	1278.54038099305	148.024826828113	1982.83077747745	709.841184640899	130.011749802608	1258.55638097589	898.835364702776	145.898917788843	1169.60585765754	915.54164887696	143.893469370443	1659.23394378624	626.926241071123	160.150753626262	756.215882803852	1084.60117988503	155.5397221561	1723.99175358669	580.363220208192	148	668.004486869973	1176.21832412197	144.59643383971	2209.03014484962	1296.29178564911	136.762975495821	2207.13972292714	958.441627399309	143	1985.06792793262	1066.33911324851	147.046156751963	1641.65440343136
402.068045290724	142.886102621199	749.284863450558	1288.85092737396	179.409102713265	1937.06519598005	1533.97885696458	143.028429474207	2581.74025396602	1846.61321722396	159.089586400323	2858.24346646011	1326.42710404171	132.070480148294	2568.28276498801	1277.7188247466	148.029756697104	1979.67536138566	708.611459741075	130.023779221956	1254.5518487883	897.503842601423	145.917596325812	1166.30284081671	915.023740576423	143.93284288106	1656.51742201841	626.474418696231	160.163833421114	754.742254549406	1083.90980383527	155.568726804301	1721.23133333464	580.272574400964	148	667.43465218091	1175.4035896941	144.625147668258	2206.55167056845	1295.88357951999	136.796604134255	2205.68116819918	958.197542124498	143	1983.97192952159	1065.43391569973	147.082229950902	1639.32660371224
402.043463165017	142.898917788843	748.788685613562	1288.53359215281	179.410857651223	1933.96107710598	1533.74230584443	143.052473253798	2579.54259467476	1846.53711958415	159.134876927986	2855.68755901145	1325.57374616039	132.107857852454	2565.03059720929	1277.41331753048	148.046700926337	1977.65282234812	707.865878526361	130.04072345119	1251.79611225526	896.835050426158	145.938843073884	1164.17444689912	914.818832354046	143.959820723185	1654.85896184999	626.366725343339	160.176381527814	753.958949253817	1083.64897266813	155.584857760389	1719.77716614556	580.290398061608	148	667.224536704686	1174.96555380881	144.665674612842	2204.94196062982	1295.65534657058	136.833629367401	2204.93412502184	958.101991200732	143	1983.24264173842	1064.84820832908	147.138736624767	1637.7596718063
402.172570603259	142.917596325812	748.748917300335	1289.17861622636	179.445153194528	1933.01429885984	1534.17643150332	143.084936148072	2578.7668722305	1847.12104981196	159.186018359229	2854.68591653713	1325.44108281725	132.15663762581	2563.80597426499	1277.58932042193	148.074233951621	1976.83288405633	707.604628729934	130.061156926116	1250.35723244749	896.814369189892	145.95927654881	1163.2659867747	914.872858560811	143.971850142533	1654.17320866436	626.574245497711	160.183485885345	753.836808092715	1083.75388318587	155.587394971873	1719.48044921761	580.399202571882	148	667.339220907027	1174.86395845172	144.714628175127	2203.98319209738	1295.59168153272	136.870488314637	2204.71136572017	958.129578812773	143	1982.72136477716	1064.53504798711	147.212713525701	1636.75929353737
402.42887821124	142.938843073884	749.105529032889	1290.6373901935	179.505272814309	1934.01555312797	1535.16543206527	143.123127125378	2579.2286974678	1848.22449192708	159.237024504179	2855.05974657909	1325.93621524829	132.213242582449	2564.43160166809	1278.16094915862	148.110833148395	1977.1415941049	707.782785021236	130.082403674188	1250.17135193073	897.364080049409	145.976220778044	1163.49062727546	915.121562360226	143.970243302896	1654.29073371853	627.039373344289	160.183485885345	754.272167435832	1084.13737890719	155.579690858613	1720.08866507568	580.572470534388	148	667.700730365507	1175.0319782952	144.76684269955	2203.43167516722	1295.65408663972	136.90319207741	2204.7715419393	958.239215310124	143	1982.23569153843	1064.42211106915	147.297116065259	1636.09286611175
402.775323565255	142.95927654881	749.760639356828	1292.6760396306	179.578358828542	1936.56954803313	1536.53457280257	143.162239137273	2580.63050851181	1849.65432641885	159.280698854946	2856.50232123243	1326.90523927428	132.273430318903	2566.543136515	1279.00261706807	148.153555464955	1978.36938440178	708.316748046817	130.101082211157	1251.05521214066	898.352759194557	145.988250197392	1164.64377396069	915.495086467494	143.957949325913	1654.9889825561	627.683424845487	160.175054304917	755.107802676392	1084.69709779674	155.565090099675	1721.28432434122	580.780893652318	148	668.203103121385	1175.3881719155	144.815383332721	2203.06846976564	1295.79415514566	136.929542569382	2204.87730783067	958.382842906744	143	1981.64237053087	1064.42771243172	147.382319412218	1635.53794806304
403.168216612421	142.976220778044	750.595451380874	1295.00806319504	179.646693569887	1940.16286213812	1538.07301024872	143.196301052989	2582.60910899936	1851.18847339425	159.310198431789	2858.62850806009	1328.1582691686	132.333693299405	2569.63758627616	1279.97001642894	148.198833526873	1980.20424512257	709.096020281019	130.1138973788	1252.73193590169	899.614541944236	145.995349747749	1166.43432536907	915.921164149401	143.938843073884	1656.02065324986	628.418351377749	160.159183168863	756.158657819733	1085.32578843382	155.548405690476	1722.73132486695	580.993272711976	148	668.733538218995	1175.84259211907	144.854495344615	2202.72139042996	1295.95944994222	136.946199523305	2204.83006740791	958.513112110522	143	1980.84482443582	1064.47121483275	147.456566433009	1634.91516191365
403.565813559558	142.988250197392	751.48822086041	1297.33867149246	179.691979497892	1944.24035632181	1539.56713938843	143.21954192883	2584.79046076944	1852.60992666348	159.320624139986	2861.02966576911	1329.49989157087	132.391013246416	2573.1432214326	1280.92878578165	148.241586843051	1982.28458386891	710.001814996611	130.118459717673	1254.87063450725	900.976807568778	145.998672777103	1168.529755805	916.327857632329	143.917596325812	1657.13916244782	629.152996057245	160.137676600757	757.23803096603	1085.91465364836	155.53214726629	1724.11050462987	581.181844826628	148	669.18912051404	1176.30959897231	144.878207604466	2202.2726524342	1296.10700683493	136.952441556088	2204.49756527043	958.590305068162	143	1979.79944652194	1064.48810384071	147.508493612547	1634.10722636217
403.930388538566	142.995349747749	752.333288972059	1299.40624748055	179.698153414002	1948.29765089017	1540.8290616995	143.227794757601	2586.85658577121	1853.73514399719	159.310198431789	2863.34873572522	1330.75461048122	132.441721400376	2576.50073647291	1281.77177832903	148.276136516073	1984.25747552474	710.919961407088	130.1138973788	1257.1317886653	902.281735602699	146	1170.60898376563	916.651665810513	143.898917788843	1658.13292251673	629.808923930843	160.114159236662	758.187391622269	1086.37066248405	155.517282574894	1725.16667291293	581.32428980874	148.001327222897	669.496111036293	1176.71776461859	144.881696850159	2201.66672639154	1296.21148032592	136.947526746202	2203.83882417692	958.591938906723	143	1978.52804488031	1064.44103788756	147.529740360619	1633.07873509052
404.235341058391	142.998672777103	753.053246484949	1301.02483422699	179.656450473328	1951.93293095899	1541.73135266985	143.21954192883	2588.57547425132	1854.44993942084	159.280698854946	2865.31364951546	1331.79176232981	132.48166731564	2579.23755565701	1282.43602598724	148.297383264146	1985.83226172316	711.757337191475	130.101082211157	1259.21357164814	903.409919212506	146	1172.40677148493	916.845341931592	143.8861026212	1658.84686292238	630.331660254531	160.093031401587	758.901236876186	1086.62629164894	155.504044845646	1725.73676010194	581.408456341984	148.005977475148	669.620342690904	1177.0195276635	144.86371267334	2200.90940733329	1296.26964931036	136.934192821633	2202.91537612959	958.51630874607	143	1977.11437094236	1064.32345269434	147.516925192975	1631.88201643123
404.466567817659	143	753.613553144165	1302.10631304334	179.568445287676	1954.91597455404	1542.22047594985	143.197628275886	2589.85107847084	1854.72102214297	159.237024504179	2866.7993313767	1332.53969466088	132.506663129439	2581.05556413091	1282.90952465317	148.301945603018	1986.84180193086	712.450118689425	130.082403674188	1260.90026806517	904.295675896373	146	1173.76152853312	916.88388695958	143.881540282327	1659.19497522158	630.695755629158	160.078884203872	759.336473692132	1086.64905345425	155.491662955285	1725.76136277847	581.435243305368	148.016400054859	669.570585637461	1177.19394673758	144.825635096435	2200.05590577962	1296.29968828682	136.916269102915	2201.87396359864	958.382286364141	143	1975.6887061205	1064.15842679885	147.473764791959	1630.6453007647
404.626271573759	143	754.024678167578	1302.68227792848	179.445599678922	1957.20649567824	1542.3377564503	143.166889389524	2590.73078277415	1854.61542723685	159.186018359229	2867.83525372819	1332.99595070682	132.513161020252	2581.86961796655	1283.23174222626	148.288951683717	1987.2616933385	712.971912775455	130.061156926116	1262.08982645264	904.934520753557	146	1174.632730163	916.774103665244	143.8861026212	1659.18062173785	630.913363784537	160.076252475754	759.522019752628	1086.45220316431	155.48069061903	1725.30153366092	581.420157662203	148.035529024564	669.39761713266	1177.24948621828	144.770357362692	2199.20511160678	1296.33438720775	136.898917788843	2200.92239365795	958.223605810735	143	1974.41421739365	1063.99030301727	147.408476232575	1629.55007700525
404.733485997604	143	754.336477224056	1302.88972896887	179.308959343467	1958.94258556606	1542.20692470037	143.134876927986	2591.38442655289	1854.28924829844	159.136204150883	2868.58956211528	1333.22234203979	132.50035141483	2581.82357491685	1283.48394563905	148.26026538002	1987.2149859977	713.336405496988	130.04072345119	1262.80662846622	905.379386612496	146	1175.10307916201	916.554837912013	143.898917788843	1658.89238194431	631.028594304034	160.089609117999	759.548403856625	1086.09248079631	155.47307238132	1724.52236309867	581.394274979618	148.064502673146	669.183921563958	1177.21720681948	144.702790459141	2198.48000459116	1296.41400260587	136.8861026212	2200.28137012246	958.083694387015	143	1973.45257793771	1063.87451854892	147.333710454859	1628.79315420626
404.819859861685	143	754.6277040614	1302.95161205593	179.183566153833	1960.39876458282	1542.02050781623	143.108715370028	2592.06346949217	1853.96733961966	159.095563875471	2869.32476240192	1333.33178853398	132.468837426277	2581.25219153321	1283.77114879079	148.220080274945	1986.93639961122	713.591350023338	130.023779221956	1263.18718236847	905.725966342032	146	1175.34972518799	916.289844829442	143.917596325812	1658.48859449592	631.109611215527	160.119607655062	759.546440622965	1085.66147446306	155.471224673185	1723.66382595941	581.396652168449	148.101880377306	669.026973411331	1177.14672936569	144.628906278759	2198.01385374998	1296.57815760218	136.881540282327	2200.1475613565	958.00496463831	143	1972.94396575903	1063.86546041296	147.262270834983	1628.55305261143
404.922256088626	143	754.987742426182	1303.11831430615	179.093040912151	1961.91694187288	1541.98458198432	143.093196704988	2593.03919628939	1853.88441939817	159.071527754451	2870.33663466707	1333.45813106597	132.422746091213	2580.6048232951	1284.1935850849	148.173988939881	1986.71651532588	713.804301324414	130.011749802608	1263.43926192083	906.08431580335	146	1175.59891972589	916.055731956127	143.937515850987	1658.16016000471	631.23068700681	160.164610907414	759.656320787393	1085.26361594407	155.476276448052	1722.98872964205	581.465423739511	148.143560600305	669.016984318243	1177.09104331315	144.554929377825	2197.91887938711	1296.85517420847	136.8861026212	2200.64456429046	958.02059168197	143	1972.9741538655	1064.00358730142	147.20535707628	1628.94821966875
405.074590174512	143	755.491519936734	1303.61255360644	179.054416657562	1963.8110060183	1542.27543653852	143.089586400323	2594.52158425225	1854.23580821805	159.068608751022	2871.86640185791	1333.72722800204	132.367863412439	2580.33204472301	1284.82078161538	148.127777377629	1986.82405873188	714.047024915622	130.004650252251	1263.78599630852	906.551603705414	146	1176.06257718206	915.925817958889	143.954626296559	1658.08907729176	631.455982421858	160.220342132806	759.994942629139	1084.99873900535	155.489925172782	1722.72732335127	581.629814458276	148.183485885345	669.218868538534	1177.0958157638	144.486577121887	2198.26157187332	1297.25719915528	136.898917788843	2201.79990627927	958.148479047653	143	1973.55723179548	1064.30906618351	147.169797827092	1630.01067605397
405.299061368908	143	756.183589188946	1304.58040327418	179.075663405634	1966.28870585054	1542.998782598	143.095480699693	2596.6030328016	1855.13341258222	159.089329501259	2874.04453818826	1334.21866493333	132.310472707504	2580.77470693063	1285.66636603505	148.086263370969	1987.43938309846	714.371766530252	130.001327222897	1264.40433609299	907.182304418328	146	1176.8852337596	915.951004500659	143.964470975436	1658.39067935541	631.82207362342	160.279482263103	760.623203977119	1084.93415769537	155.509306234377	1723.01286067561	581.89896557944	148.214979589957	669.651643681556	1177.18434810358	144.429544450186	2199.0406390237	1297.76833322877	136.917596325812	2203.53343683657	958.381103744267	143	1974.62821160778	1064.77028693236	147.157254457993	1631.67836143888
405.600042471973	143	757.061850586547	1306.05344824606	179.153399672118	1969.39116126344	1544.1636676554	143.105732463407	2599.22545882739	1856.57683155079	159.13163707441	2876.84840024123	1334.94788774388	132.258518003116	2582.09823563161	1286.68506604566	148.052473253798	1988.62048962415	714.800523330524	130	1265.38759050964	907.974252312429	146	1178.11366718156	916.147596276689	143.963143752539	1659.09257694418	632.328547788265	160.33423747378	761.535143759962	1085.09064868065	155.531598550779	1723.85876534908	582.260189080675	148.232357096474	670.287444910497	1177.35099297653	144.388123164079	2200.17563708913	1298.34803436247	136.938843073884	2205.66393908395	958.689718458076	143	1976.04622627188	1065.34745085458	147.166367932825	1633.79560352271
405.964480486	143	758.08031384462	1307.94476894128	179.275011533574	1972.98618564745	1545.6809274096	143.115224601697	2602.19308703832	1858.45413319648	159.191588749539	2880.11119007604	1335.85724355555	132.217363777952	2584.23797928649	1287.7764065753	148.028429474207	1990.28555168329	715.314184052362	130	1266.71565843565	908.8672532022	146	1179.68216396488	916.492311683637	143.949976044309	1660.1255121842	632.93950605038	160.377244919675	762.659885149895	1085.43871344734	155.552130308479	1725.15838742535	582.681156963377	148.232357096474	671.057812812933	1177.56429121657	144.365846788191	2201.52427519374	1298.93677711919	136.95927654881	2207.94978626417	959.029227712656	143	1977.62308133656	1065.9803345389	147.192804300348	1636.14733418247
406.362666947986	143	759.153812767999	1310.06943390951	179.42164673368	1976.79392139667	1547.38432222493	143.118459717673	2605.20762249741	1860.5672101467	159.262370089217	2883.54819982781	1336.82948619737	132.191738935313	2586.92476431421	1288.80937452408	148.014404248402	1992.23733462348	715.86280215672	130	1268.26549544362	909.760303698662	146	1181.43635013564	916.930251148852	143.925766048379	1661.34093119504	633.592995140301	160.40444295045	763.883112996889	1085.90725497542	155.565619156423	1726.71144534214	583.11764913367	148.214979589957	671.872378404577	1177.77424253108	144.365033515045	2202.91538462978	1299.46512696785	136.976220778044	2210.14442900916	959.346173451739	143	1979.16394794065	1066.59747262173	147.230967822377	1638.50428216171
406.756469753184	142.998672777103	760.180349974763	1312.18984757864	179.572574083228	1980.46544072201	1549.07032019207	143.1138973788	2607.94621048639	1862.67903823216	159.33756254096	2886.83285915303	1337.71874794781	132.182506129822	2589.75350662417	1289.6510992718	148.009300504501	1994.21399291189	716.37679234984	130	1269.84363544081	910.539383247339	146	1183.17492393841	917.38483899648	143.893817103856	1662.54619422685	634.216146089144	160.416192753058	765.074165592884	1086.40231228246	155.570181495295	1728.2763875425	583.52231044955	148.183485885345	672.638653178115	1177.92521175068	144.386388856344	2204.18219750606	1299.86741899868	136.988250197392	2212.04125570977	959.590507271351	143	1980.49921014161	1067.13386613208	147.276512479758	1640.66382944896
407.107024313561	142.995349747749	761.063997031967	1314.06684347925	179.709706775648	1983.66282538393	1550.54252242666	143.101082211157	2610.1361231255	1864.55871338549	159.409691783384	2889.66662145282	1338.38665559819	132.189987472124	2592.27033613594	1290.20192482509	148.013077025505	1995.94978768597	716.788309655801	130	1271.23228730306	911.108577351701	146	1184.69728921605	917.782496266504	143.858194337653	1663.55004731975	634.745807963695	160.41742419649	766.11986991771	1086.8334978118	155.56627269902	1729.6249204856	583.857433937214	148.143560600305	673.281789094265	1177.97158750431	144.428758701891	2205.19938073541	1300.0913610454	136.995349747749	2213.51306848656	959.724738246058	143	1981.51515610989	1067.53871798694	147.326074596214	1642.48645548846
407.383819109833	142.988250197392	761.740811402198	1315.51475127028	179.822411321315	1986.15053265965	1551.65640897706	143.082403674188	2611.63401395826	1866.03413053972	159.473241297433	2891.86163314148	1338.7360211323	132.209461254271	2594.08329086817	1290.41411994591	148.023779221956	1997.23764788358	717.047663538843	130	1272.24531060059	911.412690005885	146	1185.85397053783	918.069718101571	143.824945695083	1664.21045688564	635.141841781774	160.416467424681	766.94850045842	1087.13596912308	155.556254562895	1730.60149510481	584.103345950747	148.101880377306	673.761638248038	1177.88840369548	144.487787110475	2205.90971908035	1300.1080201382	136.998672777103	2214.52925265211	959.729235644245	143	1982.17303653986	1067.7870598925	147.379613215047	1643.91708484796
407.570097289096	142.976220778044	762.189474542215	1316.43248534848	179.907347469387	1987.83387441673	1552.3448122926	143.061156926116	2612.44276540763	1867.01501018624	159.523700834272	2893.35921281442	1338.73449541341	132.238613584937	2594.94873061394	1290.30362004378	148.042050674087	1997.97589264314	717.135905809653	130	1272.77387946546	911.451791562814	146	1186.57864692596	918.225488597264	143.799136608139	1664.45883985193	635.396057973279	160.422869140121	767.541521881267	1087.28558549937	155.546953037308	1731.14657648565	584.261540327096	148.064502673146	674.077867446292	1177.67833078742	144.558164493801	2206.32776731367	1299.91818315744	137	2215.14881717577	959.607863056985	143	1982.50336644518	1067.88365183965	147.436900899608	1644.98369244138
407.668134859037	142.95927654881	762.435197149079	1316.82215953416	179.970243302896	1988.77264882813	1552.63207356946	143.04072345119	2612.71291081577	1867.50834643704	159.559753353363	2894.23989825545	1338.41733435219	132.273072285668	2594.81065798015	1289.94125379306	148.065807178367	1998.17746387889	717.067794258132	130	1272.80347444744	911.276267316194	146	1186.89597165879	918.259525327358	143.785020410043	1664.31403078863	635.526637293333	160.444805461116	767.932160660803	1087.29480036015	155.544560449375	1731.30915027449	584.350458005917	148.035529024564	674.266031908045	1177.36831093787	144.629971643795	2206.52475769712	1299.5486006656	137	2215.48691796491	959.383580210791	143	1982.58533351187	1067.85829816185	147.49887109887	1645.7745350145
407.69563885416	142.938843073884	762.543178593587	1316.77777675596	180.022451999059	1989.1623862741	1552.62117093366	143.023779221956	2612.7112063776	1867.60533828744	159.582205352422	2894.70092745225	1337.87552394143	132.309931232903	2593.80515316204	1289.43541856098	148.094153476797	1997.9607938262	716.886091655452	130	1272.41821110789	910.972779128771	146	1186.90963089617	918.206018528	143.785020410043	1663.86794644145	635.571242971412	160.486833417526	768.190683452899	1087.206018528	155.554400321078	1731.22353349077	584.399167861987	148.017727277756	674.385668644648	1177.00547691471	144.6943667448	2206.6165858867	1299.05143778839	137	2215.69162684202	959.096002156393	143	1982.53238037339	1067.76176264479	147.565631574276	1646.41848299459
407.682239749906	142.917596325812	762.599109474038	1316.45911106551	180.076252475754	1989.27756046914	1552.46490554797	143.011749802608	2612.74903615059	1867.45345383708	159.595303057776	2894.99756579623	1337.23108996551	132.345201528092	2592.23409012162	1288.90508472391	148.124861433113	1997.52942843056	716.650281516916	130	1271.78490695916	910.640010012408	146	1186.77992149062	918.111847973414	143.799136608139	1663.25965374611	635.57571123838	160.54730077072	768.404077652798	1087.07790016352	155.576707696585	1731.07164009475	584.437848496483	148.010627727398	674.504414507476	1176.65074581876	144.743781109217	2206.73026715772	1298.49559468345	137	2215.90169656435	958.796839544264	143	1982.45995077214	1067.65583204807	147.636005829117	1647.04988011779
407.661905702518	142.898917788843	762.690666982471	1316.05346064351	180.142059654121	1989.41222712064	1552.32866411766	143.004650252251	2613.11601990084	1867.22139824261	159.603551148946	2895.38558840893	1336.6113265682	132.374701104935	2590.48513103398	1288.46107610768	148.15462082999	1997.12051896408	716.424222273989	130	1271.11106574246	910.369186657314	146	1186.68272363597	918.021521276164	143.824945695083	1662.64823464951	635.580454362806	160.619082279732	768.657781052214	1086.96474740341	155.607052860384	1731.04498793786	584.490603404848	148.013077025505	674.684554842696	1176.35946236737	144.774209448794	2206.98369675884	1297.95359680791	137	2216.22896276459	958.534695957797	143	1982.46769015211	1067.59813326591	147.707440711392	1647.78375840487
407.664652661349	142.8861026212	762.892625352523	1315.73795266918	180.225790551206	1989.83728296301	1552.35331354144	143.001327222897	2614.03763706722	1867.06196855508	159.611703112635	2896.09043992625	1336.12345429018	132.394858091608	2588.97867380049	1288.18517995944	148.180943866686	1996.97827229032	716.264528151233	130	1270.6183779243	910.227359543102	146	1186.78709389738	917.969832729027	143.858194337653	1662.18864646622	635.61662181234	160.692256207342	769.019231393193	1086.91068125787	155.638805501887	1731.31001783555	584.571792283275	148.025106444853	674.973053961382	1176.17646013758	144.785959251402	2207.46998283858	1297.49332214267	137	2216.74811696172	958.349933227826	143	1982.62982689168	1067.63486594716	147.77633483784	1648.7011619163
407.712857330284	142.881540282327	763.248457721938	1315.64716006894	180.326872762363	1990.73948893386	1552.62863462504	143.001327222897	2615.61760109098	1867.08637673573	159.623711852134	2897.24786214055	1335.83996091981	132.401902610479	2588.08786948926	1288.12096109781	148.20095130524	1997.3087809958	716.212232164183	130	1270.50408656921	910.249026360444	146	1187.2244752862	917.981456845056	143.893817103856	1662.01359347747	635.704146199149	160.755080479088	769.531643473934	1086.94513916491	155.66242984836	1731.98693558363	584.688267600989	148.045373703441	675.396869511311	1176.12490260529	144.783960386032	2208.26474372857	1297.16423678238	137	2217.51381342731	958.265554768027	143	1983.00153064932	1067.78977145193	147.83871212194	1649.85252062016
407.817316218516	142.886102621199	763.775567419	1315.85707175422	180.440770141163	1992.23059339088	1553.18511913242	143.004650252251	2617.86439264421	1867.35579228386	159.641983304264	2898.93298067463	1335.79927699988	132.394858091608	2588.09575722707	1288.28433322998	148.213914224921	1998.26201729211	716.294164509372	130	1270.92179464386	910.443516443684	146	1188.08382316033	918.06892103983	143.925766048379	1662.23194996487	635.85067287167	160.796760702087	770.215177726315	1087.07901971048	155.671108713504	1733.14595504135	584.839096792348	148.072906728724	675.96590268752	1176.2062333698	144.775269472804	2209.41078617488	1296.99496038356	137	2218.55160812319	958.285365766009	143	1983.60840074803	1068.06539959689	147.892142147546	1651.2495130904
407.975515298236	142.898917788843	764.465926784554	1316.37957766708	180.559229858837	1994.33680064204	1553.9933737033	143.011749802608	2620.70568341436	1867.87386103845	159.66708771129	2901.16112902073	1336.00864822274	132.376028327832	2589.16369722299	1288.66437133663	148.221407497842	1999.9179904358	716.523571065407	130	1271.96644410172	910.802613970591	146	1189.40637847379	918.241341670169	143.948648821412	1662.92799027378	636.059965074612	160.812566642438	771.074342633927	1087.31424839889	155.661377435029	1734.81467640288	585.023432736212	148.106182896144	676.677411925736	1176.40267874841	144.767381045665	2210.93441095802	1296.98937014036	137	2219.88014190797	958.395918224736	143	1984.46395839644	1068.44435345881	147.934170103957	1652.88126826591
408.175800719689	142.917596325812	765.295083013585	1317.16835405405	180.673127237637	1997.01514072769	1554.97786843525	143.023779221956	2624.0204280668	1868.59715424879	159.699031848639	2903.90491202149	1336.45117981202	132.35117900324	2591.30922386477	1289.23425829927	148.226317570127	2002.2714881067	716.901067183982	130	1273.66067005685	911.306301444949	146	1191.18395659297	918.505078129972	143.958493500288	1664.16358749577	636.331710137384	160.803183097375	772.105686086732	1087.64520883601	155.635228342816	1736.98585659006	585.24094174114	148.141805662347	677.524299216805	1176.68674852616	144.767554990148	2212.84258104147	1297.13242133646	137	2221.50607595162	958.573540548708	143	1985.56356568421	1068.8977691651	147.964470975436	1654.71655671967
408.398836701386	142.938843073884	766.230581130598	1318.14021763369	180.772882225897	2000.1729963404	1556.04588165729	143.04072345119	2627.67901791366	1869.45648452748	159.736564545747	2907.11564922142	1337.10112765843	132.326331287762	2594.42991220831	1289.96276677077	148.232177810965	2005.24817892038	717.423209841404	130	1275.96574298126	911.937680929098	146	1193.37230744427	918.869075806275	143.952721172828	1665.97199441646	636.667639722927	160.775007614943	773.302477203843	1088.06632811848	155.598880216846	1739.62411605036	585.49397265428	148.176381527814	678.494949681204	1177.02784962865	144.779130848273	2215.12370989901	1297.39050540735	137	2223.42393836574	958.789152867932	143	1986.89196095106	1069.38994097786	147.983599945141	1656.71370858865
408.625570831552	142.95927654881	767.240911897381	1319.19108667449	180.850635647835	2003.68168822991	1557.10446605955	143.061156926116	2631.56306189463	1870.36762487394	159.778332682124	2910.73042394148	1337.92301421149	132.309928533129	2598.31794106403	1290.81400082159	148.244121354762	2008.7112572066	718.075279483202	130	1278.78202926625	912.676733739412	146	1195.89395268634	919.341006592465	143.930847074603	1668.34157964914	637.067349059515	160.738319483705	774.651189630742	1088.56923489339	155.561080438317	1742.65818174814	585.785233168409	148.205513644112	679.571240861724	1177.39827664148	144.803698947011	2217.75390269391	1297.71954585455	137	2225.6116552098	959.015210814489	143	1988.42615639675	1069.8849160806	147.994022524852	1658.82687223296
408.839218461011	142.976220778044	768.292431754477	1320.21531621615	180.898715548446	2007.38191435943	1558.07803428238	143.082403674188	2635.56419696558	1871.24734637358	159.821599948054	2914.65325978228	1338.8792777705	132.306439287437	2602.69058114104	1291.7523268071	148.26438861335	2012.47597973972	718.837590691875	130	1281.9615391688	913.503949143847	146	1198.64358034065	919.927145971044	143.896792399797	1671.22171422662	637.529160801064	160.705158754513	776.134359844412	1089.1479269882	155.531683764383	1745.99805283287	586.117887803008	148.226729392565	680.732398199092	1177.78267349466	144.83643363983	2220.69186550187	1298.0773610796	137	2228.02560405489	959.234677588792	143	1990.13495592123	1070.35701706599	147.998672777103	1661.00747940467
409.029938682386	142.988250197392	769.352583394963	1321.12065363627	180.911009525429	2011.0971053798	1558.91698826777	143.101082211157	2639.58494814696	1872.02263525154	159.862061541382	2918.75749214362	1339.92122033993	132.317113959038	2607.23307719926	1292.73102567167	148.293334737082	2016.33349440897	719.677311732908	130	1285.32576343761	914.390165963531	146	1201.49931289679	920.62536723922	143.856439399695	1674.49785266784	638.044986570471	160.685239229338	777.717757674758	1089.79471913396	155.517022616918	1749.51412734433	586.490842545033	148.238758811913	681.945204964985	1178.17561947404	144.870895399474	2223.88203824258	1298.42604782007	137	2230.60229910619	959.439918274127	143	1991.98348668028	1070.79127573825	148	1663.2141555589
409.193383070646	142.995349747749	770.389997798906	1321.83739602575	180.882315493587	2014.65851919385	1559.59875261786	143.1138973788	2643.54380629164	1872.63559731693	159.895218795805	2922.8955473997	1340.98803129587	132.339600016629	2611.62345164854	1293.69353621417	148.329177436917	2020.06405422415	720.550618617744	130	1288.67827624486	915.292879774231	146	1204.32629828621	921.421217138701	143.816514114655	1678.00614392158	638.598099068209	160.683938198886	779.352209281538	1090.49613288099	155.520257732893	1753.05480028209	586.897063547026	148.241586843051	683.168072760885	1178.5851926352	144.898663797069	2227.25430909433	1298.74511791762	137	2233.26419512375	959.638904977317	143	1993.93557059976	1071.19133647718	148	1665.4126584499
409.332129240188	142.998672777103	771.377994964962	1322.32775623531	180.81045637102	2017.92882291173	1560.1263132839	143.11978694057	2647.38078731267	1873.05304477006	159.916465543877	2926.91991335064	1342.00788298998	132.366536189542	2615.57057221923	1294.57177631881	148.366536189542	2023.46245850343	721.403196558717	130	1291.82741401795	916.154499420756	146	1206.98873726876	922.280692938369	143.785020410043	1681.53695353265	639.160562143137	160.701289512958	780.971788587976	1091.22891751949	155.53852145688	1756.45046015922	587.32089881161	148.236211231033	684.349302606422	1179.02874754874	144.911997721638	2230.72632080367	1299.03410694314	137	2235.9271019505	959.851298756007	143	1995.95429468809	1071.57849366923	148	1667.57807216066
409.450580695865	143	772.298203863771	1322.58376659316	180.695302527246	2020.82731677361	1560.52062015354	143.118547631051	2651.07109429405	1873.2649018024	159.921093078452	2930.71404398759	1342.90772371155	132.391622975632	2618.85069255474	1295.29769165567	148.400718332446	2026.36439384301	722.179588915937	130	1294.61001196857	916.912291865018	146	1209.36725240956	923.15765133213	143.767642903526	1684.86892062854	639.698034141866	160.732002206875	782.504306669831	1091.96241564418	155.563358920426	1759.53693541555	587.740432283327	148.224209336535	685.43708825474	1179.52630899067	144.90574062975	2234.19103354294	1299.30650708389	137	2238.49508508995	960.100896035806	143	1997.99035917374	1071.98164167638	148	1669.68256680122
409.554574044364	143	773.140087467208	1322.63340280711	180.542817386124	2023.33513967829	1560.82432241042	143.112832013765	2654.61755957134	1873.29700158222	159.90574062975	2934.20093949076	1343.63114992022	132.407792172249	2621.34096374943	1295.81913469934	148.425593919057	2028.67369588971	722.832695542119	130	1296.91312376882	917.509848589144	146	1211.37769047977	923.991068414719	143.767642903526	1687.80168014594	640.170795689562	160.767822189035	783.880648426433	1092.65587416913	155.584597940354	1762.18223141309	588.127881890837	148.207265107301	686.385411190542	1180.09286886755	144.879065122041	2237.53403707115	1299.59031255024	137	2240.87917375065	960.409096747062	143	1999.99091183038	1072.43498894021	147.998672777103	1671.69735095625
409.648033210638	142.998672777103	773.901219347329	1322.52285450288	180.363196004734	2025.48846291063	1561.08159456663	143.106182896144	2658.04311220651	1873.18957739095	159.86864254233	2937.34875391354	1344.15150336474	132.412323511502	2623.01955575666	1296.1131147467	148.436646907833	2030.36274095668	723.332880623145	130	1298.68305012261	917.910950324384	146	1212.97641257692	924.720849098476	143.785020410043	1690.18186504702	640.543395094587	160.797558868236	785.043120392813	1093.26831798542	155.591159144597	1764.29717867272	588.455998479123	148.186804107525	687.158076995735	1180.7322474028	144.835389092586	2240.63364284119	1299.91253466798	137	2242.99517238883	960.785786021637	143	2001.89117607181	1072.96136098336	147.995349747749	1673.58420425285
409.731652435635	142.995349747749	774.580524297795	1322.30476147302	180.172348107746	2027.34996952161	1561.33294540982	143.101880377306	2661.36566997276	1872.99218671126	159.810282647733	2940.15415445767	1344.47889767415	132.405129444512	2623.96272837554	1296.19103013543	148.430757346064	2031.47155268092	723.672127255823	130	1299.9310327232	918.107714139646	146	1214.16615229602	925.291873873812	143.816514114655	1691.92641765666	640.785993654953	160.812914375851	785.955384508062	1093.75985503108	155.57511406406	1765.85211999512	588.699677881291	148.163833421114	687.735831409947	1181.42934263374	144.778330644297	2243.37057334015	1300.28885501935	137	2244.76857085132	961.222619001037	143	2003.61944043299	1073.56458175082	147.986922974495	1675.29286257656
409.802433775313	142.988250197392	775.170954354645	1322.01946994105	179.988766047028	2028.96748078987	1561.59492586542	143.101880377306	2664.56051982122	1872.73949977614	159.732956940856	2942.60460347739	1344.65220310568	132.39022749812	2624.31035961794	1296.09124260144	148.408128499163	2032.0842645504	723.863383057506	130	1300.71643548435	918.117409104517	146	1214.98552195654	925.665172704126	143.855112176798	1693.01337439151	640.880172549199	160.807485616214	786.599056302983	1094.09840237276	155.5336000574	1766.85543374626	588.838880707738	148.139003823654	688.109977342355	1182.15181517195	144.714540261749	2245.63708776394	1300.71651551555	136.998672777103	2246.13776797088	961.694043487956	143	2005.09919391483	1074.22553452251	147.970243302896	1676.76453905639
409.855285900085	142.976220778044	775.653251643546	1321.68986927527	179.83119431746	2030.34030814012	1561.86380646377	143.107510119041	2667.53728181512	1872.45253346571	159.642960755922	2944.6542951549	1344.71792682679	132.371088159019	2624.21168640772	1295.86293450741	148.37028999287	2032.29409053676	723.930399690609	130	1301.12115105413	917.973624191283	146	1215.4898574358	925.816898144893	143.892142147546	1693.46645602148	640.816946896319	160.779981776254	786.972023590959	1094.25794499551	155.468316235617	1767.33606147069	588.85925156218	148.112832013765	688.276397154652	1182.84833900869	144.648035248465	2247.33052702233	1301.16638742353	136.994022524852	2247.03675583281	962.15819307277	143	2006.24270483997	1074.89987342113	147.941549271054	1677.9236435883
409.882241024534	142.95927654881	775.9983396657	1321.31517436006	179.714728727555	2031.4103712718	1562.11015125901	143.117482266015	2670.14249842973	1872.12931743175	159.546502604571	2946.21664354136	1344.71123532481	132.351173441018	2623.78761682721	1295.54950456443	148.321510219514	2032.1850814189	723.897801066242	130	1301.22489947355	917.711065865548	146	1215.73325860367	925.742266804833	143.917770049098	1693.33748733619	640.59848279827	160.732956940856	787.085027652069	1094.22312830943	155.386969664469	1767.32520286977	588.754148534644	148.087053926439	688.234969905069	1183.45848220158	144.58257580351	2248.37157554936	1301.58965767397	136.982272722244	2247.41079276118	962.565744128283	143	2006.96770043131	1075.52544287956	147.897336574172	1678.69569271079
409.877590772283	142.938843073884	776.165267172	1320.87925987953	179.647708432115	2032.05752486248	1562.29188594186	143.130297433659	2672.16132064028	1871.7592692735	159.452519943772	2947.15677337419	1344.64003085424	132.333046678473	2623.10734507345	1295.17086266327	148.266693287904	2031.8180619622	723.783487195771	130	1301.08539160005	917.354219721074	146	1215.7572316107	925.45385861533	143.924291698621	1692.67700371279	640.235202987224	160.670607181607	786.950220948155	1093.98939716559	155.298443288156	1766.83162454278	588.523563552363	148.062484149013	687.983572832296	1183.92534783552	144.519304573796	2248.7091576105	1301.93020236599	136.958493500288	2247.22041569238	962.871575875935	143	2007.20626676009	1076.03864928857	147.83536637491	1679.01698848454
409.837558622329	142.917596325812	776.115112622365	1320.35645172176	179.630225856766	2032.13542533057	1562.36202180882	143.144893385423	2673.3687589344	1871.32825750898	159.368029490835	2947.32952514297	1344.48346643375	132.317643015785	2622.17431172413	1294.72455083728	148.210583329481	2031.22189159316	723.593962435395	130	1300.72955051678	916.912577340617	146	1215.58259492137	924.981139008269	143.90602024649	1691.53925704843	639.746409737674	160.598359026186	786.58809981812	1093.56652582541	155.212713525701	1765.85734681465	588.177787749829	148.04072345119	687.522568545364	1184.20335942722	144.45814764768	2248.34231781349	1302.13820433934	136.917770049098	2246.4671411213	963.042789639191	143	2006.92904161147	1076.38623223136	147.755530911825	1678.85787768969
409.763581721396	142.898917788843	775.822548120042	1319.72817738271	179.654624748621	2031.51698031778	1562.28685418887	143.159271082241	2673.59135847581	1870.83444506853	159.298007707008	2946.63078265853	1344.20672024703	132.305880657381	2620.96319711652	1294.19576300351	148.158205717205	2030.41926130238	723.329652180018	130	1300.16471436586	916.388282194471	146	1215.2221883982	924.369928277331	143.862385450443	1689.97738525676	639.160814490433	160.521846592455	786.021600856933	1092.98339953504	155.138736624767	1764.40288458959	587.738836992062	148.023779221956	686.858917820605	1184.27268425927	144.398291752016	2247.3188281763	1302.18689422714	136.857940345879	2245.19329573692	963.068958877401	143	2006.14783603515	1076.54191104753	147.660312069993	1678.22885803529
409.661377435029	142.884775398303	775.286897583839	1318.98340758062	179.706468821956	2030.13505279174	1562.04304886766	143.173988939881	2672.75423618359	1870.27735706721	159.244469088175	2945.03254049883	1343.77333930939	132.297642818142	2619.4585418753	1293.56776755179	148.112160371292	2029.44709418006	722.988028683509	130	1299.39928257485	915.778731662761	146	1214.69235465418	923.685967160784	143.79798867075	1688.06811211803	638.518604620847	160.445332480036	785.285876470646	1092.29554298449	155.080902728005	1762.50444694367	587.244746586883	148.011749802608	686.018690825777	1184.14061138647	144.338889763857	2245.76139748188	1302.08122862605	136.780186923941	2243.51411016122	962.962775764011	143	2004.94378808082	1076.51217211326	147.554667519964	1677.20563115111
409.541428112028	142.876890030076	774.541658304325	1318.13013666032	179.769935160227	2028.02494843082	1561.6311629712	143.188586570333	2670.92845549908	1869.6720154423	159.206313848089	2942.62798045661	1343.17173088312	132.293886511505	2617.67492695296	1292.8426853734	148.074233951621	2028.35912975922	722.574286324602	130	1298.45449808667	915.092606591109	146	1214.02216347428	923.003496994638	143.719828163974	1685.92518681783	637.866261316054	160.371181634619	784.431607204167	1091.57396080645	155.041506499712	1760.25563795325	586.74315134613	148.004650252251	685.053439709157	1183.84202424144	144.279747595733	2243.84541171211	1301.85758096836	136.689527292496	2241.60015570773	962.758080237917	142.998672777103	2003.44901721954	1076.33592321682	147.445332480036	1675.91382084048
409.417773967729	142.873025595694	773.650585066176	1317.19555150264	179.828266824552	2025.32380064419	1561.07742994217	143.202962588463	2668.3269539877	1869.04406101745	159.179966415029	2939.62244868669	1342.42083377622	132.294666767152	2615.69906103787	1292.04485459572	148.045373703441	2027.24282763565	722.104772448678	130	1297.38906632034	914.354447038296	145.998672777103	1213.26716845703	922.400619214692	143.638114062708	1683.70823104911	637.25503429082	160.301771879732	783.527053341566	1090.90007112169	155.017727277756	1757.81798223969	586.289347764575	148.001327222897	684.039608136244	1183.42545967255	144.221755231254	2241.79286134776	1301.57025634482	136.596086106298	2239.66937349119	962.49778289338	142.995349747749	2001.84580341835	1076.07103547471	147.339687930007	1674.5259151561
409.305895113062	142.870488314637	772.703229772219	1316.22370984246	179.867579877068	2022.25634098508	1560.43098259466	143.215777756107	2665.28075596108	1868.42742012848	159.160598305138	2936.31034288324	1341.5767783211	132.301525449011	2613.67861378613	1291.22702478932	148.025106444853	2026.20123491502	721.608585230968	130	1296.29144888457	913.603960840896	145.994022524852	1212.50065415803	921.944759938773	143.563353092167	1681.61460545133	636.73079926629	160.237807552701	782.650142919381	1090.34979590769	155.004650252251	1755.41144332224	585.932810595541	147.998672777103	683.073653355816	1182.94629979953	144.1669121072	2239.84261333356	1301.27768213893	136.50992306656	2237.95134903717	962.224657080129	142.988250197392	2000.33504489685	1075.78081714634	147.244469088175	1673.23159091555
409.219639352772	142.863795849117	771.796422218566	1315.26366865881	179.875793844064	2019.09263642701	1559.75549501762	143.223315390921	2662.17821013595	1867.85708521232	159.142238939629	2933.02095757785	1340.72568107214	132.313795736858	2611.8146254379	1290.46350974855	148.010422579711	2025.34368724416	721.127724974936	130	1295.27725227175	912.895100679577	145.982272722244	1211.80817887681	921.684891710071	143.505534672171	1679.85745171508	636.329037461864	160.179966415029	781.880884423427	1089.98096016917	154.996676970646	1753.28678566288	585.711183150795	147.995349747749	682.253740214466	1182.44946526877	144.117932698753	2238.20329309057	1301.0207284953	136.440502942277	2236.63536156508	961.967797953132	142.974893555147	1999.0954803999	1075.51448379155	147.16463362509	1672.19987322256
409.166637042227	142.849256673561	771.018896580887	1314.35340571929	179.843875124165	2016.09486731387	1559.10788407984	143.222079140315	2659.39125887056	1867.34935925081	159.120996929158	2930.05242164734	1339.96203272247	132.331955516901	2610.30384270538	1289.82846219959	147.998672777103	2024.7479761862	720.703229254385	130	1294.45377724444	912.277467776854	145.958493500288	1211.25760590091	921.641239976715	143.471325004417	1678.61509975334	636.065045633529	160.129104600526	781.276088062947	1089.82087377596	154.988250197392	1751.66319870929	585.640698264901	147.988250197392	681.657481258294	1181.97234169961	144.077556980975	2237.02531288664	1300.82296066556	136.393130373467	2235.8431734671	961.745599889189	142.953299073663	1998.25805725402	1075.30587843118	147.102663425828	1671.55500116025
409.146639148448	142.823072397927	770.431722579749	1313.51149959242	179.763055571937	2013.46397174719	1558.52780039305	143.2078800396	2657.20210528964	1866.89720413482	159.092655437902	2927.60974878321	1339.36207899205	132.35282226911	2609.28423681731	1289.37568298685	147.983599945141	2024.43087276015	720.366935915495	130	1293.88836888582	911.782233158686	145.917770049098	1210.87420229182	921.797859643203	143.462530701044	1677.9892915557	635.929028067587	160.084936148072	780.855804757202	1089.85768934642	154.976220778044	1750.67924229923	585.709468983302	147.974893555147	681.319862221767	1181.53474962864	144.046700926337	2236.36235898255	1300.68192317486	136.367596213553	2235.59266564985	961.562233809831	142.921115796128	1997.87356301326	1075.16578685866	147.058450728946	1671.3446044526
409.151289538641	142.785552166564	770.061040730573	1312.73100579395	179.627144208961	2011.307652932	1558.02662295085	143.178411392802	2655.75660223799	1866.46694873455	159.055301422879	2925.77201913086	1338.95995288224	132.371884276711	2608.78401731026	1289.11483847738	147.958493500288	2024.32749397472	720.127038643129	130	1293.57764430636	911.404664626588	145.856613122982	1210.61955715539	922.103242265718	143.477626388625	1677.95708489279	635.883602912946	160.04649577865	780.585903588586	1090.0420853396	154.95927654881	1750.33485133876	585.878878191643	147.954626296559	681.217317019511	1181.14318344248	144.025106444853	2236.14402297593	1300.57526219684	136.358366466975	2235.77952481496	961.413669603004	142.877417048997	1997.89468592851	1075.08731269028	147.029756697104	1671.52613294315
409.165684138536	142.739475890605	769.895693708208	1311.98661103685	179.434695242074	2009.62830474724	1557.59290952372	143.134330853727	2655.04760954605	1866.01067748447	159.007356449421	2924.4867409448	1338.73270779164	132.384523425275	2608.68951576951	1289.0023737006	147.917770049098	2024.29328437546	719.960943737451	130	1293.43043674207	911.098706148116	145.774209448794	1210.38449492684	922.4738976995	143.509124900411	1678.35832918644	635.868869896931	160.010702196451	780.377184121138	1090.28828642511	154.938843073884	1750.47610057976	586.08676273163	147.925766048379	681.26551101051	1180.79175513718	144.011749802608	2236.17975361196	1300.4703088648	136.356267270374	2236.19228458226	961.293787020911	142.822665313089	1998.18218168479	1075.05299073333	147.013077025505	1671.96727656388
409.173831898475	142.690871670847	769.889360426026	1311.24694039402	179.19014034399	2008.32755268271	1557.20222833648	143.08064873623	2654.9208364643	1865.485112766	158.94980982797	2923.58443119136	1338.60364484096	132.385764413481	2608.75278909897	1288.94786734777	147.856613122982	2024.12055163223	719.817283763694	130	1293.27300216582	910.782867303775	145.673127237637	1210.00097993519	922.79993570498	143.547200439489	1678.90280455251	635.805739456841	159.971570525793	780.094123181288	1090.48481274523	154.917596325812	1750.80207211259	586.254936371259	147.887839628708	681.329441232896	1180.46368043905	144.004650252251	2236.18293238007	1300.335030189	136.351166585386	2236.54378720381	961.196041454151	142.75911579904	1998.5263070346	1075.03983940949	147.004650252251	1672.46495181643
409.16197042378	142.647750894124	769.969622621642	1310.48283862105	178.904418969075	2007.22442411713	1556.82833030292	143.023779221956	2655.10775865758	1864.86531938832	158.882924818822	2922.81192104299	1338.45952124555	132.374852331742	2608.62948170833	1288.83219417784	147.774209448794	2023.57421040627	719.624915833751	130	1292.87635952359	910.358936495166	145.559229858837	1209.27008493338	922.966404426175	143.580728698799	1679.22138632145	635.613140968853	159.922420301349	779.57840796227	1090.5138844824	154.897590565946	1750.92064969959	586.302680679203	147.840467059898	681.249275294225	1180.13521059997	144	2235.81534799868	1300.14206149958	136.334854443905	2236.51639873059	961.115386450277	142.691278755685	1998.68021328168	1075.02359413701	147.001327222897	1672.77399765043
409.122744306062	142.618218933897	770.047349392724	1309.68027549951	178.595824248437	2006.08325745459	1556.45782508827	142.971824517568	2655.27242421504	1864.15831103155	158.808004165623	2921.87541323836	1338.18221563388	132.353454356863	2607.94602018925	1288.53950722525	147.673127237637	2022.43819190491	719.309430117424	130	1292.00044105356	909.735995036487	145.440770141163	1208.00335699808	922.864326444074	143.601026541149	1678.92623344613	635.217023741323	159.857940345879	778.676541763457	1090.26491730842	154.881452368949	1750.41790480135	586.156664981357	147.784766418268	680.866495480297	1179.77709892466	143.995349747749	2234.7446145655	1299.87483335096	136.303272825915	2235.81399593437	961.044222252288	142.623732531983	1998.40146889966	1074.97953801859	147	1672.64577909534
409.055446649855	142.606070671125	770.03250675701	1308.83200886224	178.285192539364	2004.65575721207	1556.08006527137	142.93147632464	2655.07939556938	1863.38575129903	158.72611924836	2920.50111120989	1337.67595046923	132.324768053166	2606.37405943907	1287.98739024837	147.559229858837	2020.55696877542	718.810492318876	130	1290.4411536293	908.856030990087	145.326872762363	1206.06288789227	922.417666655551	143.603276477323	1677.68467030207	634.568639984451	159.774209448794	777.268311871229	1089.66098224412	154.869790479719	1748.93784453167	585.767735369185	147.721556909488	680.054408612055	1179.35844443962	143.988250197392	2232.70207521675	1299.52272273125	136.257457979105	2234.20588349866	960.971139696808	142.560028024986	1997.48799183092	1074.88108919823	147	1671.86486078691
408.964377499836	142.613568681647	769.842764428043	1307.93733963417	177.993433454733	2002.70753790195	1555.68928902448	142.90664672718	2654.23211253662	1862.57873183049	158.638398417049	2918.46176468449	1336.88771895989	132.294314226566	2603.6922085624	1287.14246600423	147.44209736406	2017.8660622483	718.093583623812	130	1288.07412735204	907.70775794839	145.225790551206	1203.3925389376	921.592286154315	143.58755343959	1675.28921784052	633.651817162387	159.673127237637	775.295917838501	1088.67003957625	154.862323399243	1746.26290980702	585.118484303873	147.653383335633	678.747314837601	1178.85352569654	143.976220778044	2229.53259044341	1299.087381513	136.202962588463	2231.57176095904	960.882426124641	142.50192706728	1995.8139230412	1074.70521310639	147	1670.28756651256
408.857947201511	142.637328314413	769.414792565107	1306.99663047617	177.737730413586	2000.05015925549	1555.27660037504	142.897852423808	2652.51406249596	1861.76344824825	158.546414691193	2915.60487900205	1335.81477008221	132.265693118571	2599.81862959035	1286.02644755988	147.332850237511	2014.39151063543	717.159213554498	130	1284.87440330652	906.330607703257	145.143386877018	1200.02984755732	920.406480908131	143.559229858837	1671.69347479336	632.490508769782	159.560557081733	772.773625064899	1087.31365465423	154.858194337653	1742.34842983311	584.22837782075	147.58433630369	676.950353526235	1178.24457235281	143.95927654881	2225.22595840359	1298.5746115767	136.146906347334	2227.92579505984	960.761005899612	142.450528944489	1993.34800216732	1074.43139842297	147	1667.86895392473
408.743938150623	142.671742701142	768.713961084936	1306.00940180634	177.530037591223	1996.57076716577	1554.83275321758	142.903568041094	2649.82362736762	1860.95754412999	158.454912531704	2911.88210786224	1334.50519881047	132.241936614291	2594.83528013074	1284.71080717875	147.243517828962	2010.25483686128	716.042336555472	130	1280.93104444372	904.810697549032	145.082229950902	1196.10879065943	918.93001724289	143.525016716313	1667.020336734	631.146344172917	159.446747616311	769.791856288759	1085.66624546172	154.856439399695	1737.33570913376	583.153181865413	147.517637549216	674.739600392986	1177.52709017885	143.937515850987	2219.91216657231	1297.99717956972	136.09668595068	2223.40221541195	960.592108701634	142.404696942224	1990.15062833355	1074.04734601186	147	1664.66283414625
408.629504859443	142.710502242023	767.741768440945	1304.97792961951	177.373921156074	1992.25647571469	1554.35023813651	142.918923548709	2646.19274809864	1860.17028993877	158.367579058098	2907.3576166371	1333.04455591364	132.223939971726	2588.98008887112	1283.30290413118	147.183566153833	2005.66220991808	714.80791563514	130	1276.43835984419	903.26321047311	145.041506499712	1191.84391804253	917.279762840672	143.493155481583	1661.56400327585	629.71588852902	159.344600040119	766.515694217752	1083.85285277354	154.856439399695	1731.54710762647	581.980878630343	147.458409505541	672.259086156173	1176.71479627138	143.912946073561	2213.85264663181	1297.37556457355	136.057123506049	2218.24945988474	960.367744025868	142.363714554144	1986.36869532146	1073.55261714748	147	1660.8241200205
408.519398049396	142.748174462404	766.535032489663	1303.91225497087	177.268350219297	1987.19952678184	1553.82817430254	142.938843073884	2641.77507800729	1859.40788887109	158.291608029396	2902.19534725248	1331.54024683792	132.211656422661	2582.6070720208	1281.92160701577	147.158482426656	2000.87089651191	713.539519429691	130	1271.6643712143	901.813367895811	145.017727277756	1187.49779931049	915.605087915651	143.470954553328	1655.72741171664	628.317984645492	159.267297050918	763.154130235016	1082.03218510556	154.858194337653	1725.4182136914	580.819190715449	147.411124850109	669.693319434818	1175.8421206274	143.887167986235	2207.39541202264	1296.74376204507	136.029756697104	2212.78775065103	960.090501815044	142.32794368962	1982.20889419241	1072.96624390773	147	1656.5798397657
408.415594789479	142.781392174928	765.165753326842	1302.83544233545	177.207538105622	1981.60545725302	1553.27627248999	142.95927654881	2636.83969007675	1858.67754533738	158.233502334088	2896.65420782227	1330.10318812845	132.203483779123	2576.13777327292	1280.67862561555	147.168493321871	1996.15622715506	712.327914103875	130	1266.91998515014	900.576111950767	145.005977475148	1183.34780728571	914.066347555508	143.461299257612	1649.97391831445	627.079170589239	159.22561682792	759.942038355229	1080.37657207067	154.862323399243	1719.444634186	579.780431585086	147.380222806321	667.243944100281	1174.96664607847	143.862323399243	2200.93673412548	1296.15339573484	136.013077025505	2207.37606497575	959.780487530043	142.298536763756	1977.91651579708	1072.32964458041	147	1652.2057436564
408.323198288468	142.80933138852	763.732321681581	1301.79827403684	177.185892138799	1975.77122250417	1552.72961017228	142.976220778044	2631.73708759626	1858.0091116135	158.19930513208	2891.05654159196	1328.84023985465	132.19656291085	2570.01990767017	1279.66929923829	147.207988804398	1991.79171145786	711.262112062996	130	1262.52207698846	899.647658049817	145.001327222897	1179.65634769087	912.816057758146	143.46454936312	1644.75626956793	626.118089374658	159.22561682792	757.10395406933	1079.05073422207	154.869790479719	1714.10423561019	578.96678847436	147.36944462711	665.099805018663	1174.15704715099	143.840816831137	2194.8609854542	1295.66092174812	136.004650252251	2202.35408254214	959.469407634402	142.277442921179	1973.73766792646	1071.69711952301	147	1647.98223443858
408.251351583754	142.832302144505	762.35159470216	1300.88003406244	177.198349273208	1970.06508760287	1552.25031825588	142.988250197392	2626.86709544027	1857.45597222713	158.193577049048	2885.76339326664	1327.84014019473	132.189463360493	2564.67384081695	1278.96350541926	147.268347564365	1988.02048960148	710.4190976488	130	1258.75878481513	899.091587164602	145.001327222897	1176.64091416758	911.975490798085	143.477276617385	1640.46854697379	625.529565895891	159.267297050918	754.833736736274	1078.18734119915	154.881452368949	1709.8071380425	578.454922656301	147.381106516341	663.417565968913	1173.4924036251	143.824945695083	2189.51635136526	1295.33348027627	136.002654445794	2198.02278200261	959.200253928732	142.268797997102	1969.90808740664	1071.13787103757	147	1644.17294467001
408.213792556259	142.85311080812	761.143328607833	1300.17944463767	177.244845051859	1964.88235661275	1551.91756748804	142.995349747749	2622.6334628467	1857.09118076749	158.218434101785	2881.13523287257	1327.17353146297	132.181031780064	2560.44601745598	1278.60631597425	147.340216986754	1985.03252630504	709.858837324097	130	1255.85787303673	898.943305317763	145.005977475148	1174.45383012312	911.620108751437	143.492443190985	1637.40562880086	625.372185151435	159.344600040119	753.272579366344	1077.86985457255	154.897590565946	1706.85488086956	578.2873032173	147.415489973024	662.306366731922	1173.04797440124	143.816514114655	2185.19000820766	1295.2289909409	136.004650252251	2194.62489094637	959.020701405792	142.274769959653	1966.63704210224	1070.71886359611	147	1641.00137473714
408.228525265488	142.873025595694	760.215665135042	1299.80738183445	177.326699039076	1960.59983500143	1551.82701200574	142.998672777103	2619.40101223098	1857.00725513022	158.272898562381	2877.49639550673	1326.89537107993	132.170932971471	2557.59399657135	1278.62484238781	147.415669258532	1982.95936660324	709.624357708116	130	1253.97559651258	899.215206343136	145.017727277756	1173.17956883822	911.772074076778	143.502194266166	1635.7373876527	625.663044794265	159.446747616311	752.497440764497	1078.12292830149	154.917596325812	1705.41444220715	578.46836965932	147.470526838267	661.8180668426	1172.88704109706	143.816514114655	2182.07653272158	1295.39049138701	136.011749802608	2192.31339259944	958.972681825339	142.298007707008	1964.08243496699	1070.49656821813	147	1638.62384056888
408.311882098773	142.894267536593	759.657241467185	1299.85993914282	177.447024325762	1957.53819343727	1552.06267896974	143	2617.47244289327	1857.28662084135	158.352764955512	2875.11755538643	1327.04237948681	132.161455822713	2556.25815806785	1279.03067484599	147.489641352292	1981.864072142	709.737181150372	130	1253.18000535674	899.898510752656	145.040179276815	1172.82850453416	912.40059833611	143.499835736765	1635.50577515749	626.375745645818	159.560557081733	752.517654823624	1078.91194023491	154.938843073884	1705.51896591371	578.96564522578	147.540813179729	661.948013626222	1173.05321523907	143.824945695083	2180.29133962174	1295.83450297265	136.023779221956	2191.16258779236	959.087424807112	142.339055842254	1962.35326045345	1070.50716837105	147	1637.13013866577
408.475536372321	142.916269102915	759.520958543718	1300.39843939573	177.60644663481	1955.91531882577	1552.68022111924	143	2617.04614903748	1857.98181371346	158.449982732287	2874.17829491352	1327.63589628777	132.153555464955	2556.46295181156	1279.82498031887	147.559229858837	1981.74435692287	710.201419472352	130	1253.45580139092	900.971699666218	145.076252475754	1173.34975665295	913.431200747042	143.481738073564	1636.62805344695	627.448593509128	159.673127237637	753.279569062029	1080.15295989693	154.95927654881	1707.07341648192	579.719520150634	147.620474698331	662.638058442237	1173.56478283826	143.840816831137	2179.84897512102	1296.54809823669	136.042050674087	2191.14768734928	959.377287329791	142.396013269906	1961.48714858097	1070.75947212164	147	1636.52691887307
408.71975494349	142.938843073884	759.823998697096	1301.43224619479	177.802835601177	1955.82815759143	1553.68876378072	143	2618.20480297083	1859.09691333488	158.557321965758	2874.75384398662	1328.67660332403	132.148210852555	2558.12129729626	1280.99323518872	147.624256026508	1982.53740953357	710.999223833154	130	1254.71143412948	902.39886343829	145.126986822159	1174.64212366706	914.761396548557	143.449723933338	1638.9171708105	628.79580376395	159.774209448794	754.675998461788	1081.73025817741	154.976220778044	1709.87393310271	580.65440208678	147.70236274408	663.788944085757	1174.41225232658	143.862323399243	2180.67235246552	1297.48907300023	136.067134401264	2192.16061723441	959.833494954569	142.465426153279	1961.45131801137	1071.23504491539	147	1636.7485369932
409.034515714152	142.95927654881	760.54384502393	1302.91644639841	178.030018554965	1957.23732607428	1555.04823694099	143	2620.8984553276	1860.58062334747	158.666289545141	2876.80023510645	1330.13688912849	132.144887823201	2561.05157970108	1282.49953025914	147.685412952625	1984.12787124529	712.09217215343	130	1256.79732181704	904.127436886398	145.190261526642	1176.57216898767	916.276068271628	143.409020140912	1642.1098286568	630.32054450506	159.856613122982	756.56407562265	1083.51520304723	154.988250197392	1713.63891308893	581.689325714484	147.779310133782	665.274060512014	1175.5567891406	143.887167986235	2182.59965560219	1298.59266405992	136.098803729047	2194.01977682771	960.429312761986	142.541878544765	1962.14373946456	1071.89291642811	147	1637.66703130348
409.401200189584	142.974893555147	761.619939732055	1304.75609785835	178.278531003891	1959.96987932929	1556.67420984143	143	2624.93723667864	1862.33440467711	158.771930966684	2880.14292057127	1331.95446910482	132.141805662347	2564.99533094374	1284.27825548178	147.743513910331	1986.35687812436	713.419683837405	130	1259.52367632971	906.085523532452	145.262370089217	1178.98747970279	917.86292722434	143.368789046686	1645.90267730204	631.928269656182	159.917770049098	758.784820827675	1085.38443581119	154.995349747749	1718.04407317978	582.748899166906	147.847116177518	666.957274900735	1176.93237131429	143.914273296458	2185.40618029244	1299.77647622677	136.137938458618	2196.49763661008	961.119851413047	142.620386784953	1963.41360655944	1072.67383305605	147	1639.11793567461
409.795282473579	142.983599945141	762.965318223325	1306.8221723735	178.537983110764	1963.74461975975	1558.45306385211	143	2630.01789994794	1864.22734776996	158.870895399474	2884.5003503121	1334.03425775979	132.137676600757	2569.65670483383	1286.23720213097	147.798786836899	1989.04764286197	714.903155349193	130	1262.68742647746	908.183928673192	145.338889763857	1181.73478538075	919.426977782535	143.338622564971	1649.99052956491	633.537745800871	159.958493500288	761.182619253554	1087.23385987295	154.998672777103	1722.76421199478	583.770433662037	147.901986826423	668.709630472744	1178.45079638059	143.942166103238	2188.8225131444	1300.95086378256	136.183050304197	2199.33877281937	961.849233955885	142.69647318231	1965.07349403942	1073.50983427977	147	1640.91754183067
410.192960868181	142.983599945141	764.47316046627	1308.96933267184	178.796254363015	1968.19937352715	1560.25799610167	143	2635.74432613003	1866.11613085068	158.961839247318	2889.5020478478	1336.24580311079	132.131536743178	2574.71081060326	1288.25629064899	147.850461924548	1992.00801969859	716.449668819802	130	1266.07928672887	910.314332393215	145.415669258532	1184.65989765951	920.893979547516	143.32620111989	1654.08715590708	635.080198109316	159.982272722244	763.614333022898	1088.9838898569	155	1727.48952027474	584.705781358721	147.942876493951	670.419017066458	1180.01394793957	143.971026351418	2192.56251154485	1302.0341071676	136.233417120484	2202.29062211796	962.561161330758	142.766494966138	1966.93000552729	1074.33601340827	147	1642.88771097542
410.573095539927	142.974893555147	766.029308726927	1311.05508096124	179.043958705108	1972.93120842923	1561.96776517694	143	2641.66908144449	1867.86640435645	159.043429648361	2894.72535958478	1338.4374084018	132.124525106199	2579.8073372404	1290.2005658829	147.896792399797	1995.02867747813	717.959574468963	130	1269.48740349666	912.359740789772	145.489641352292	1187.60341990239	922.208251987616	143.33564726903	1657.94516271221	636.50187681283	159.994022524852	765.953501424477	1090.57458302947	155	1731.947414973	585.518482015376	147.970243302896	671.996060475462	1181.51968042714	144	2196.34783269613	1302.95601818004	136.285887453312	2205.12454322861	963.201003470718	142.82843764055	1968.80404386176	1075.09525032746	147	1644.87003349898
410.920839086678	142.95927654881	767.519235705197	1312.95600725682	179.272276819293	1977.51990601273	1563.4821888136	143.001327222897	2647.32391579383	1869.37152177781	159.113803903201	2899.72167288203	1340.44344917665	132.118809488912	2584.58325913992	1291.92864542438	147.935497326854	1997.88673439239	719.330184077973	130	1272.70043649765	914.19695212337	145.55790263594	1190.39631296495	923.322457820364	143.368117404214	1661.34468729255	637.752615785854	159.998672777103	768.079553599367	1091.95143653035	155	1735.8864718869	586.179545786156	147.986922974495	673.365032515736	1182.86481632502	144.028973648582	2199.91337548696	1303.65841103916	136.3370413503	2207.63937296919	963.720179631585	142.88074007835	1970.5383608725	1075.73700188891	147	1646.72443973862
411.225650362008	142.938843073884	768.837884124029	1314.56786107891	179.475672685038	1981.56092967324	1564.72278070376	143.004650252251	2652.2681563081	1870.55434673331	159.17040885984	2904.06024410986	1342.10061681568	132.117932698753	2588.67039603277	1293.31028817643	147.964470975436	2000.35042916004	720.465721820627	130	1275.504171578	915.707313967494	145.618278551361	1192.85432302269	924.193114503581	143.421031801381	1664.0913439253	638.780060942601	160	769.871921222349	1093.05822126882	155	1739.07652918915	586.662797223756	147.995349747749	674.457997936456	1183.95767949033	144.056506673866	2203.01179892839	1304.09943795307	136.382319412218	2209.65881605927	964.082256447617	142.922443019025	1972.00071363544	1076.22187877676	147	1648.32265161881
411.480736433029	142.916269102915	769.89435107787	1315.80920603548	179.649422484734	1984.67998273954	1565.63679129594	143.011749802608	2656.11943967949	1871.36885351619	159.210329337707	2907.35433800536	1343.26091928914	132.125659599262	2591.7082513218	1294.23408367404	147.983599945141	2002.1855149895	721.279290768232	130	1277.68403814918	916.781855557348	145.667685674869	1194.77901560946	924.774319167081	143.488663900634	1666.00825204973	639.528963743971	160	771.204709466841	1093.83281584797	155	1741.30100045863	586.944527037189	147.998672777103	675.208141944179	1184.72267303505	144.081076451291	2205.42047280281	1304.25775001511	136.416641147968	2211.0371025787	964.267529962083	142.953299073663	1973.08591990219	1076.52294463187	147	1649.54444455334
411.67766483617	142.894267536593	770.613123195002	1316.60851239239	179.79122814708	1986.54396356293	1566.18411080983	143.023779221956	2658.56771894596	1871.78546377398	159.231029873577	2909.27227598591	1343.80115250587	132.142603828496	2593.35830340274	1294.61567025139	147.994022524852	2003.16327419163	721.697779129982	130	1279.02839032769	917.326187611041	145.702007410619	1195.96252893538	925.020507554432	143.565207333984	1666.92644971723	639.940316807512	160	771.943152070414	1094.2090476772	155	1742.34924426778	587.002404808611	148	675.544079428214	1185.10177970137	144.101082211157	2206.92974235788	1304.12305250399	136.436646907833	2211.64186067072	964.269394453706	142.974893555147	1973.69868160417	1076.61957208784	147	1650.26617917219
411.805074821624	142.874352818591	770.935836202894	1316.90405143125	179.898715548446	1986.87816134986	1566.33409799368	143.04072345119	2659.39917538403	1871.78454641428	159.232357096474	2909.56552991737	1343.63452290448	132.168667045158	2593.33066902187	1294.40240898337	147.998672777103	2003.07762604321	721.666575172095	130	1279.34170066205	917.269968180592	145.716556885998	1196.20689149203	924.88745926405	143.641633533025	1666.68300579148	639.95650092134	160	771.954649587788	1094.12019762802	155	1742.02531026109	586.816184826089	148	675.390333432587	1185.06453947549	144.113897378801	2207.34846753665	1303.70840701384	136.439710117153	2211.35603416344	964.098880387092	142.986922974495	1973.75397300937	1076.5048760351	147	1650.361774415
411.850607130724	142.857761060371	770.824121595108	1316.6483395101	179.969089803286	1985.48918460108	1566.0674166772	143.061156926116	2658.5047673253	1871.35556409869	159.214979589957	2908.08495661615	1342.71397947491	132.199885940204	2591.41313080921	1293.57277917702	148	2001.76790806793	721.151614748259	130	1278.46189000896	916.570029345113	145.70707504753	1195.34578556836	924.338217253292	143.712256404986	1665.13935848356	639.530138331777	160	771.12586906133	1093.5134305886	155	1740.17052890301	586.369370179834	148	674.678635697986	1184.60660756964	144.118459717673	2206.50377235672	1303.04174780274	136.426527419391	2210.07702866725	963.780435274976	142.990699495499	1973.16564922354	1076.18178893273	147	1649.71168263494
411.801814939514	142.84537917001	770.257100030682	1315.81605682699	180.001124982499	1982.27851273164	1565.37558869478	143.082403674188	2655.87267651844	1870.49869514031	159.183485885345	2904.78060354739	1341.04389067552	132.232706867713	2587.49119591579	1292.14397692409	148	1999.13187157319	720.145298605562	130	1276.27676699824	915.221607125545	145.671001848591	1193.26840873801	923.350295324795	143.771689392763	1662.18831768067	638.633211212341	160	769.377718356734	1092.35747100293	155	1736.67857795486	585.651270827406	148	673.354611201909	1183.75333126307	144.112570155904	2204.25882308193	1302.17148859536	136.399784832112	2207.7309245443	963.34726227309	142.985595751598	1971.85351841979	1075.67008502261	146.998672777103	1648.22111821545
411.6510620683	142.837760862727	769.238415013238	1314.41966514001	179.993506675217	1977.27628366383	1564.27331395276	143.101082211157	2651.60187097906	1869.23339422995	159.143560600305	2899.72874671086	1338.68390949933	132.263441016474	2581.57366693785	1290.17349027557	148	1995.14581838481	718.671570681026	130	1272.74610073914	913.265597156656	145.608624564491	1189.94483386292	921.920797793989	143.815360615045	1657.79446613047	637.267226417331	159.998672777103	766.693174323838	1090.65461330772	155	1731.54206475293	584.66084100623	147.998672777103	671.401185996134	1182.5618308521	144.096431958906	2200.54588141509	1301.16733376652	136.363472980223	2204.30635538151	962.843256480737	142.970243302896	1969.7673305465	1075.01007169785	146.995349747749	1645.85390737064
411.398442916321	142.835192651623	767.797654505417	1312.51762872718	179.947848617436	1970.64958616117	1562.8019647315	143.1138973788	2645.88721122533	1867.60523635936	159.101880377306	2893.12358537568	1335.75193412113	132.289480602522	2573.82399288073	1287.76232520458	148	1989.89071808564	716.789805230823	130	1267.92781067941	910.796117784315	145.523700834272	1185.44848363765	920.076900593342	143.841138702371	1652.02127409199	635.472592371906	159.994022524852	763.130156903248	1088.45086662436	155	1724.87778979103	583.412857630069	147.994022524852	668.84941644459	1181.11421530084	144.069326648683	2195.39498553219	1300.11192557758	136.321960652251	2199.87676886798	962.314695970063	142.941549271054	1966.90634942803	1074.25913947841	146.988250197392	1642.65615146667
411.055514529314	142.837760862727	765.99828619218	1310.2211283679	179.866773844832	1962.71616189643	1561.03707409228	143.118459717673	2639.02502113513	1865.6944106003	159.064502673146	2885.28686851908	1332.42149816407	132.312992763535	2564.55480963024	1285.05527010838	148	1983.55489227347	714.595333443411	130	1261.98412919323	907.957578188932	145.424370086305	1179.95976109353	917.882232055845	143.848209067404	1645.06074184741	633.332357107819	159.982272722244	758.835591436519	1085.84205277903	155	1716.95403193235	581.943826483795	147.982272722244	665.793690688777	1179.51721018851	144.032727451909	2188.97598151718	1299.10103257613	136.280171836026	2194.63452938947	961.809701680913	142.897336574172	1963.35100213886	1073.4934359661	146.976220778044	1638.77917610425
410.644173651799	142.84537917001	763.939703409207	1307.68577954369	179.756744028899	1953.93364022133	1559.08117394358	143.1138973788	2631.40982011311	1863.60751044368	159.035529024564	2876.66292112223	1328.90460716884	132.33504248493	2554.22780034331	1282.22862430331	148	1976.43390224126	712.213831652569	130	1255.1880051216	904.937433874986	145.320895287215	1173.76255988122	915.438506253462	143.83536637491	1637.24500271847	630.969731115598	159.958493500288	754.040872882378	1082.96790602314	154.998672777103	1708.19177618183	580.314248583363	147.958493500288	662.39205972288	1177.8938724945	143.988250197392	2181.61646914867	1298.23245569712	136.240609391394	2188.8996741453	961.375887277514	142.83536637491	1959.28450620102	1072.79806701628	146.95927654881	1634.48070317307
410.196674582937	142.857761060371	761.752206071227	1305.10773030457	179.623994168647	1944.86075131422	1557.07031166545	143.101082211157	2623.50801909201	1861.4885470765	159.016400054859	2867.782829937	1325.4423935154	132.359600214272	2543.41437258419	1279.48362330566	148	1968.90857498694	709.798065939287	130	1247.90573892841	901.953974095975	145.224463328309	1167.22010860532	912.883968289922	143.804658418594	1629.02558351947	628.539434226256	159.917770049098	749.043196832054	1080.00788797439	154.994022524852	1699.12849887618	578.609068428435	147.917770049098	658.855872067719	1176.37411415889	143.938843073884	2173.77807902625	1297.59582241174	136.20481100202	2183.09084855283	961.053861997041	142.755530911825	1954.9757526914	1072.25466150741	146.938843073884	1630.09142954725
409.752749594286	142.874352818591	759.592358529091	1302.70125906175	179.476732709049	1936.11145098279	1555.15926487575	143.082403674188	2615.83789993667	1859.50287242325	159.005977475148	2859.23378744546	1322.27286599968	132.387767830618	2532.75621495989	1277.01949031894	148	1961.41908713871	707.509614705151	130	1240.57113937585	899.230993836105	145.143386877018	1160.74295967542	910.383269310963	143.760722638677	1620.93964069309	626.214994733628	159.857940345879	744.178728970208	1077.16233250097	154.983599945141	1690.3738798541	576.93380223594	147.857940345879	655.428603266778	1175.07958347351	143.88862267723	2166.03069342543	1297.25878169161	136.172260194368	2177.69250644997	960.873663675254	142.660312069993	1950.76837273998	1071.92782798552	146.917596325812	1625.97943749292
409.355330753681	142.894267536593	757.621239637638	1300.67879265256	179.321960652251	1928.27832201969	1553.51187159747	143.061156926116	2608.91880949402	1857.828000526	159.001327222897	2851.59532693726	1319.60899447312	132.418921529962	2522.90463611012	1275.01400748714	147.998672777103	1954.4206439	705.506239223802	130	1233.64696822276	896.974001954414	145.082229950902	1154.75022947422	908.110687920443	143.709550207816	1613.55519788663	624.168749478593	159.778859701044	739.785893898565	1074.63152352715	154.963143752539	1682.54342553565	575.403076464915	147.780186923941	652.360225123906	1174.11510669462	143.841083892081	2158.97875853268	1297.26476643873	136.142326853007	2173.18559553157	960.855200189887	142.554667519964	1947.02816704984	1071.85555107175	146.897590565946	1622.49096937169
409.044069390591	142.916269102915	755.988973202672	1299.22014940888	179.164257661406	1921.86705618781	1552.27813078764	143.04072345119	2603.22230502272	1856.62734967641	158.998672777103	2845.37883201521	1317.62409713023	132.449342141394	2514.46794556583	1273.60916438776	147.994022524852	1948.34465500655	703.929559126975	130	1227.58293689837	895.354171825966	145.041506499712	1149.62817041261	906.237166803361	143.660566061768	1607.4095215376	622.55754583696	159.684877040245	736.168668681836	1072.60181905091	154.930847074603	1676.1920785011	574.131338716186	147.690854515393	649.875290476344	1173.55686674877	143.800375917657	2153.18914455527	1297.62324402492	136.114159236662	2169.98255570344	961.002975395652	142.445332480036	1944.09422923626	1072.04203858343	146.881452368949	1619.90307714487
408.849611188939	142.938843073884	754.812122912172	1298.44811265786	179.005772327461	1917.23127816641	1551.57380454264	143.023779221956	2599.11549359744	1856.02428126574	158.994022524852	2840.96391775268	1316.43253696384	132.472966487867	2507.94984339005	1272.89221154137	147.982272722244	1943.55481773751	702.889239451158	130	1222.76845911403	894.48611248246	145.017727277756	1145.69187247067	904.913889128202	143.621454049873	1602.94624802315	621.507469074596	159.583009080793	733.564256554175	1071.23019961727	154.885042597189	1671.75282971091	573.220806892937	147.599409135651	648.14768850618	1173.44928695853	143.768708268562	2149.10903439471	1298.31609826583	136.087053926439	2168.36088120424	961.315266179041	142.339687930007	1942.2217297475	1072.46356516617	146.869790479719	1618.38206488057
408.788044744249	142.957949325913	754.161269398541	1298.40802227162	178.843790089252	1914.55003466463	1551.45802770677	143.010422579711	2596.83253602518	1856.07597674201	158.982272722244	2838.56817536627	1316.0783102874	132.482977383082	2503.70240442185	1272.88747296961	147.958493500288	1940.31301140192	702.449861590651	130	1219.49322067365	894.418342189213	145.005977475148	1143.15513840657	904.251842689225	143.596858080002	1600.4629315108	621.099233572577	159.481493592353	732.117728403289	1070.62445028792	154.826682702592	1669.48978026596	572.744908292046	147.517022616918	647.279232929611	1173.80129495597	143.747098797546	2147.02037723184	1299.29939994763	136.062484149013	2168.43636423833	961.780368048104	142.244469088175	1941.5578052245	1073.07356846146	146.862323399243	1617.97737219518
408.859496919921	142.971570525793	754.054279968714	1299.06888923315	178.673933269873	1913.82548026926	1551.92808538161	143	2596.4515885278	1856.76420502693	158.958493500288	2838.22980180028	1316.54257317783	132.473764791959	2501.90023036569	1273.56320078685	147.917770049098	1938.75844941739	702.629032356197	130	1217.92053080067	895.134609764799	145	1142.11578903699	904.308024998279	143.587676488498	1600.07832148085	621.358835644028	159.388029688479	731.871452410849	1070.83201037926	154.758063385709	1669.47632371265	572.738884340513	147.452532361625	647.291845021605	1174.5870412659	143.733757144833	2146.99066590718	1300.51071398417	136.04072345119	2170.13490158851	962.380813162218	142.16463362509	1942.10627523895	1073.81438708413	146.856867114757	1618.61749913733
409.050609374544	142.976500394784	754.457836307121	1300.33505615038	178.490444463558	1914.91291932636	1552.92270969462	142.989577420289	2597.90225274965	1858.002324214	158.917770049098	2839.82085442712	1317.74523360084	132.443751265365	2502.52368486706	1274.83512926217	147.856613122982	1938.89436262131	703.39265201668	130	1218.06942100086	896.557151914392	144.995349747749	1142.54924733369	905.07383670791	143.590220303238	1601.71654405982	622.253375920928	159.308194225395	732.763549941127	1071.83062718437	154.682356984215	1671.58699136764	573.192048250675	147.410074602701	648.12676452865	1175.74908829283	143.724814743139	2148.88727684723	1301.87542330297	136.023779221956	2173.22968286434	963.09430120001	142.102663425828	1943.75020213418	1074.62842540325	146.850461924548	1620.14627320014
409.337702730159	142.971570525793	755.301950097897	1302.07181561141	178.28991618367	1917.57472731494	1554.33814249104	142.976220778044	2600.99775319973	1859.65482844817	158.856613122982	2843.09095934568	1319.56599712455	132.395134579862	2505.37072565611	1276.58940442027	147.772882225897	1940.59294961081	704.664465896742	130	1219.82106299236	898.563944166733	144.986922974495	1144.32239006503	906.470377913768	143.596695476375	1605.12682649582	623.693852004815	159.244469088175	734.642620759334	1073.52420425264	154.603009278436	1675.52824317395	574.046394464813	147.388029688479	649.658110855445	1177.20319772841	143.713850688827	2152.40353007427	1303.31376744633	136.011749802608	2177.37979197285	963.890842686713	142.058450728946	1946.27368318123	1075.46637531441	146.83871212194	1622.35699112392
409.692791063525	142.956622103016	756.498701805402	1304.13232436381	178.071846704714	1921.53900770626	1556.05322675025	142.95927654881	2605.4876003247	1861.56843633879	158.774209448794	2847.72829896715	1321.85519501948	132.333172108744	2510.10599693938	1278.6938868863	147.668476985386	1943.63118494622	706.332179687009	130	1222.94758470989	901.00190942624	144.971570525793	1147.22426152386	908.360463603973	143.599155143877	1609.91887809212	625.546725999684	159.196127329702	737.292253936296	1075.75712521339	154.523173815352	1680.87582250756	575.207901194315	147.379613215047	651.71186784676	1178.84259311133	143.693560712563	2157.12067403702	1304.74374061006	136.003323029354	2182.19370405464	964.733627998047	142.028429474207	1949.40738763949	1076.28779100923	146.816687837942	1625.03241683943
410.088200570417	142.934192821633	757.95747194822	1306.37597051572	177.840039344837	1926.53916319459	1557.9429705463	142.938843073884	2611.09003947283	1863.59184760809	158.673127237637	2853.40063260043	1324.45626196047	132.265453978385	2516.31614373945	1281.01769720781	147.547480056228	1947.72901913191	708.26694613082	130	1227.15095362866	903.709200062713	144.946199523305	1150.99960397694	910.570174198933	143.591703052933	1615.63467260874	627.654372194228	159.159966217385	740.467754881305	1078.33837235165	154.445332480036	1687.15407852422	576.562131348111	147.374945807342	654.097850666954	1180.55490278847	143.657779596109	2162.58377917478	1306.09357220093	135.996676970646	2187.29603146563	965.580489824652	142.008426773254	1952.88279906783	1077.06787107889	146.780093448342	1627.98515945118
410.500798136438	142.905846523204	759.599387702852	1308.68921541992	177.599953310026	1932.34182307637	1559.9022698234	142.917596325812	2617.53201211587	1865.60179331821	158.559229858837	2859.80029271152	1327.21923648236	132.199095384734	2523.56292291974	1283.44154299723	147.416990919207	1952.58694672715	710.335939174627	130	1232.10557333311	906.530659012944	144.90908637678	1155.38429843689	912.91422120945	143.570267370846	1621.81308412812	629.855604264165	159.130297433659	743.928588202003	1081.06917465523	154.371181634619	1693.8969085008	577.992469491661	147.36398175303	656.633790870631	1182.23400432493	143.603276477323	2168.37383289227	1307.30705034325	135.988250197392	2192.38173508965	966.390534296568	141.992900449642	1956.47194374565	1077.79605212262	146.726403602701	1631.07918075819
410.914372550692	142.875138566887	761.364026521902	1310.99031338544	177.358794182036	1938.75148408001	1561.85523527535	142.898917788843	2624.56327352826	1867.5182694494	158.440770141163	2866.66223438781	1330.01069639612	132.139527180237	2531.44293515891	1285.86081540506	147.286149311173	1957.93025826955	712.417698012894	130	1237.50313825643	909.330441846058	144.860472819763	1160.13603505206	915.227166138912	143.53545063688	1628.04730368161	632.007937819321	159.102409434054	747.464984607736	1083.774460054	154.301771879731	1700.70181779918	579.39818827233	147.339416782778	659.167457492055	1183.79113672175	143.53080038463	2174.16236785921	1308.34697996818	135.976220778044	2197.24362242557	967.124882549348	141.977548000941	1960.01227834587	1078.46936251744	146.655661817743	1634.23564570231
411.321274158189	142.844051947113	763.201444805236	1313.2304174975	177.122061760343	1945.58663151298	1563.76082710407	142.8861026212	2631.95629448201	1869.30862841442	158.325545539466	2873.76076182949	1332.72337692866	132.09091362322	2539.61120741919	1288.19234528057	147.163306402193	1963.5214642652	714.415555192185	130	1243.07922760674	912.003465417342	144.800904615266	1165.05068491613	917.379394697555	143.489829531259	1634.03127107881	634.002506735018	159.07065387158	750.918039640952	1086.31867104872	154.237807552701	1707.27478890777	580.704360677466	147.298710487042	661.59077974562	1185.16903440902	143.445070622175	2179.74239188055	1309.20227117689	135.95927654881	2201.78569007798	967.754336526876	141.95927654881	1963.41759492624	1079.09251234141	146.570717803583	1637.42631606355
411.71883170577	142.814405881063	765.072995919496	1315.38011315172	176.893569701675	1952.66308186806	1565.60881833328	142.881540282327	2639.50990264751	1870.97987987507	158.219813076059	2880.91500357491	1335.27794482338	132.053800476695	2547.80252544013	1290.37078349513	147.055005727682	1969.1773130506	716.262944649227	130	1248.63309607158	914.475777805764	144.733218798718	1169.97067497874	919.292565642356	143.438921727606	1639.58338776518	635.772744429666	159.031400229013	754.18605088818	1088.62250263512	154.179966415029	1713.44529003895	581.869043550624	147.244642811461	663.843609561393	1186.34132894571	143.353716214724	2185.03241866058	1309.88033442565	135.937515850987	2206.00672744292	968.262635812952	141.938843073884	1966.66682642727	1079.66929873867	146.476826184648	1640.65561734988
412.106399950923	142.785971669255	766.938092720567	1317.41401588711	176.672860038751	1959.77116911696	1567.40311689099	142.886102621199	2647.038788511	1872.56025118832	158.125659599262	2887.96950971414	1337.62603123253	132.028429474207	2555.82623209163	1292.35431914117	146.963420461989	1974.76553578012	717.927741766487	130	1254.02876164753	916.70594937704	144.660850416108	1174.78333703612	920.941646781101	143.387767830618	1644.63186866306	637.294833939078	158.983599945141	757.215606819599	1090.66068363456	154.129104600526	1719.14862408109	582.881041077363	147.184284051494	665.903156522926	1187.31412929043	143.26438861335	2190.04988318225	1310.40768415233	135.911618850664	2209.96434625868	968.646261630275	141.916269102915	1969.77583455555	1080.2022038325	146.379613215047	1643.93454503995
412.481218290167	142.757656300872	768.756730629416	1319.29395213155	176.456820424783	1966.68439507236	1569.14415026012	142.898917788843	2654.38583498251	1874.07115939479	158.04072345119	2894.80369853691	1339.74902435252	132.013077025505	2563.56771804765	1294.1229927082	146.886102621199	1980.20923653353	719.408237302193	130	1259.1954876487	918.680298436763	144.587138142383	1179.41977725372	922.348687481752	143.339600016629	1649.21054643874	638.582425452384	158.925766048379	759.998185192392	1092.45610412519	154.086263370969	1724.41753648107	583.756121038142	147.125659599262	667.783213439696	1188.12400332545	143.185067100016	2194.87652281608	1310.82803709747	135.881190511088	2213.74365756723	968.920009496128	141.892940313696	1972.77949303154	1080.69521108947	146.286149311173	1647.26402013303
412.833256103491	142.727446471257	770.486035642482	1320.96252128725	176.238758811913	1973.17305940098	1570.81541136484	142.917596325812	2661.41544268753	1875.51205062555	157.95927654881	2901.31604785053	1341.64914380932	132.004650252251	2570.96837417908	1295.67446366385	146.817037609181	1985.46949019715	720.725162548412	130	1264.11219416661	920.404315912913	144.514742234924	1183.84322795882	923.568313627412	143.295882317962	1653.41355462525	639.674108142019	158.858865980126	762.5513150739	1094.06293599665	154.051146030901	1729.33307599959	584.526820527184	147.076252475754	669.515010038187	1188.82716823904	143.119607655062	2199.62452867761	1311.19457561167	135.844596121488	2217.43733484551	969.112369953333	141.868375343444	1975.71474770257	1081.15625608927	146.20201132925	1650.63310696634
413.149323417201	142.694723756948	772.090322082982	1322.35404654232	176.011495810834	1979.04852864723	1572.3836611817	142.938843073884	2668.03129305939	1876.86084265019	157.874340400738	2907.44077173634	1343.34576385426	132.001327222897	2578.00958436986	1297.02232654838	146.748693219329	1990.5365284264	721.911236728406	130	1268.79223713984	921.897072182865	144.445332480036	1188.04285057082	924.672888949673	143.256486089669	1657.36368810681	640.621898711609	158.783960386032	764.909923733707	1095.55099729991	154.022451999059	1733.99440586213	585.233465037953	147.038852053918	671.140125993331	1189.48407767967	143.070480148294	2204.3982550633	1311.55878107058	135.799310331425	2221.12746901678	969.259736323272	141.840033782615	1978.61058358206	1081.5953738157	146.13163707441	1654.01990292181
