Light	Light	Light	Light	Light	Light	Light	Light	Light	Light	Light	Light	Light	Light	Light	Light	Light	Light	Light	Light	Light	Light	Light	Light	Light	Light	Light	Light	Light	Light	Light	Light	Light	Light	Light	Light	Light	Light	Light	Light	Light	Light	Light	Light	Light	Light	Light	Light
Optode1-730nm	Optode1-Ambient	Optode1-850nm	Optode2-730nm	Optode2-Ambient	Optode2-850nm	Optode3-730nm	Optode3-Ambient	Optode3-850nm	Optode4-730nm	Optode4-Ambient	Optode4-850nm	Optode5-730nm	Optode5-Ambient	Optode5-850nm	Optode6-730nm	Optode6-Ambient	Optode6-850nm	Optode7-730nm	Optode7-Ambient	Optode7-850nm	Optode8-730nm	Optode8-Ambient	Optode8-850nm	Optode9-730nm	Optode9-Ambient	Optode9-850nm	Optode10-730nm	Optode10-Ambient	Optode10-850nm	Optode11-730nm	Optode11-Ambient	Optode11-850nm	Optode12-730nm	Optode12-Ambient	Optode12-850nm	Optode13-730nm	Optode13-Ambient	Optode13-850nm	Optode14-730nm	Optode14-Ambient	Optode14-850nm	Optode15-730nm	Optode15-Ambient	Optode15-850nm	Optode16-730nm	Optode16-Ambient	Optode16-850nm
532.239137875259	141.954626296559	884.391307747521	818.699320757825	223.399872966687	1074.11669118418	587.250890585156	149.870895399474	862.795240134349	1213.68414513207	159.401783697482	1542.18454242691	1185.22845458608	139	2078.82540420881	1072.98513899752	148	1549.9609559832	476.987990835768	134.230440803457	706.852661556895	1137.1933365947	167.325545539466	1540.43367301381	630.232626791597	148	871.961759842513	947.138618827782	182.322222510112	1192.71210600504	1148.91006078325	182.869690148487	1878.68423090433	1266.93782331538	147	1577.50406279434	946.871675426271	171.371448299654	1860.21551431829	1219.90641584009	135.15462082999	2185.70186002818	786.719167567474	208.467881903038	1501.72002088874	1069.74278071103	140	1725.7001051297
532.440069261014	141.937515850987	884.947440477301	818.916490398651	223.444381220823	1074.55328928647	587.419006536051	149.83643363983	863.480704236612	1214.1351384963	159.366448276164	1542.97606801698	1185.83861392871	139	2081.28920723752	1074.15254414799	148	1552.27273372453	477.094233745284	134.32819998526	707.419233187422	1138.70992704537	167.434792666016	1543.76017909708	630.652932636858	148	872.870391601482	948.09875993732	182.423042863408	1194.55800060141	1149.59131551598	182.922420301349	1880.47401759378	1267.72545344751	147	1579.07732829687	947.766325250617	171.44209736406	1862.04806884562	1220.73229058354	135.162239137273	2187.62759155296	787.31731545897	208.540534639987	1503.72205805903	1070.00916214774	140	1726.65222815014
532.700991966669	141.917596325812	885.543754333817	819.205080918802	223.507904542427	1075.07293414143	587.620763384445	149.802371724114	864.112078438841	1214.67359627965	159.321960652251	1543.76632704599	1186.52810387542	139	2084.04464140433	1075.353315277	148	1554.79439974487	477.244810618171	134.439442918267	708.168208844751	1140.1953837358	167.541502581081	1547.11235465145	631.085359001853	148	873.827123261141	949.037227517094	182.517723359125	1196.40577355513	1150.3260428623	182.959820723185	1882.42708324991	1268.45184809247	147	1580.62561573093	948.742309650408	171.517977350899	1864.30946990852	1221.60278622614	135.164807348377	2190.03039394599	788.032697598028	208.652156443968	1506.19708920005	1070.38336831269	140	1728.10632623437
532.986466535708	141.898917788843	886.062189863077	819.539033294817	223.583903026407	1075.59109977203	587.82729162884	149.77580781892	864.584715224479	1215.22719332866	159.277196540084	1544.37634206145	1187.16421581753	139	2086.58535006787	1076.39570248385	148	1557.05039349637	477.395097642865	134.553252383689	708.938757109254	1141.37216680276	167.631620737925	1549.82077779085	631.480734533145	148	874.724635180131	949.803449883135	182.589570063838	1197.97035126943	1151.01061482456	182.980945499347	1884.32180614007	1268.96761875775	146.998672777103	1581.87724539879	949.688422191952	171.595303057776	1866.66186919496	1222.37078447998	135.162239137273	2192.4756478949	788.78745207885	208.776770418988	1508.88490857958	1070.79025391754	140	1729.82065429295
533.240201021679	141.886102621199	886.375101459768	819.864370211807	223.665412754981	1076.01212795055	587.991426714892	149.760455439791	864.804040473639	1215.67658774286	159.238610526024	1544.62911422444	1187.60247939039	139	2088.39306317007	1077.07381214038	148	1558.53904779429	477.49399008911	134.655399959881	709.557825909278	1141.95586025515	167.690652274995	1551.20509151901	631.788386291677	148	875.442160334538	950.245908486554	182.624845096628	1198.93669643824	1151.53927059279	182.989372272602	1885.89490516781	1269.13493275243	146.995349747749	1582.53920326652	950.471520972829	171.666451927572	1868.71436393434	1222.87178874439	135.15462082999	2194.46752025574	789.481876197525	208.88250822342	1511.4676904304	1071.13710447195	140	1731.49880490534
533.391381252376	141.881540282327	886.35153038455	820.104611446682	223.744706743464	1076.23048875202	588.055409470861	149.755351626317	864.689057491537	1215.86672944236	159.210845187342	1544.35639742961	1187.70100760323	139	2089.01564129454	1077.19164299742	148	1558.80899844337	477.487596018561	134.732702949082	709.860708487981	1141.68962307449	167.708575993713	1550.68125303085	631.959726751967	147.998672777103	875.851641809679	950.234319373107	182.61309529402	1199.00758689113	1151.81459391955	182.985595751598	1886.86963048469	1268.84428547823	146.986922974495	1582.34221853525	950.958306034329	171.724708849686	1870.07532711035	1222.94905208429	135.143566162526	2195.51755289273	790.011341255057	208.941809880347	1513.60921674641	1071.32936579675	140	1732.83320997559
533.364983257036	141.8861026212	885.87879755397	820.167505986761	223.813605677087	1076.14553405188	587.9567585825	149.758325243571	864.185016090081	1215.63263150297	159.194800106805	1543.42955341163	1187.35207213413	139	2088.15085378412	1076.60615311475	148	1557.5522747759	477.329088154508	134.775710394977	709.718412212981	1140.40378729319	167.680229695284	1547.88297542683	631.950095261577	147.995349747749	875.837402897917	949.68350638271	182.549390787024	1197.97472774735	1151.76374498982	182.970243302896	1887.0142185557	1268.03995174949	146.970243302896	1581.10952849877	951.038972670019	171.762887361247	1870.41521345624	1222.48735862133	135.130297433659	2195.22602354548	790.286389506216	208.93635359586	1515.00850231504	1071.29169454873	140	1733.5542242178
533.098636187937	141.898917788843	884.880475333223	819.969137709685	223.865319512976	1075.6770920777	587.645008417121	149.764854134003	863.271330797815	1214.84341538577	159.188939865967	1541.77983119901	1186.50703799008	139	2085.71348575983	1075.264578949	148	1554.68718820394	476.987678719897	134.780360647228	709.060677440707	1138.06086346044	167.607841515969	1542.76518919665	631.728710229033	147.988250197392	875.320943024312	948.580696156194	182.435493408223	1195.78217583327	1151.35494412618	182.941549271054	1886.19806685806	1266.73737952414	146.942876493951	1578.81734945251	950.656820687346	171.774753623169	1869.53636441135	1221.44735909744	135.117482266015	2193.37530858557	790.255066755544	208.863179668249	1515.45984468481	1070.98956390425	140	1733.49293871035
532.559565749509	141.917596325812	883.344336691233	819.454780596971	223.892663604245	1074.79382092171	587.095638129478	149.770689978477	861.974844775411	1213.44353935213	159.188131330422	1539.43485382871	1185.18624938461	139	2081.85497040531	1073.22718348857	148	1550.39190970346	476.455791007604	134.749103003941	707.890021465526	1134.77670711354	167.500779129891	1535.64068439299	631.285127934793	147.976220778044	874.285449913322	946.994289050283	182.280983209287	1192.56140573658	1150.60432986168	182.897336574172	1884.43293388968	1265.02810402223	146.90331404932	1575.62387270707	949.823521602557	171.756482171038	1867.41386023192	1219.88400233443	135.107510119041	2189.99170090877	789.913755400632	208.732702949082	1514.89642274738	1070.44311119055	140	1732.62302308313
531.756798558521	141.938843073884	881.327390890674	818.619436752169	223.893990827142	1073.51560729676	586.320763675697	149.773258189581	860.363223597494	1211.48145211683	159.188136137596	1536.5151735459	1183.48689903045	139	2076.9500554546	1070.66845578098	148	1545.09455334343	475.751870003742	134.690928984446	706.286320796751	1130.81592291853	167.3736357399	1527.15232288213	630.635576088666	147.95927654881	872.786787815623	945.068434531216	182.101082211157	1188.61762293958	1149.57692814376	182.83536637491	1881.87865004541	1263.06938042058	146.853093652666	1571.85060800252	948.617971628452	171.710157208385	1864.2120856038	1217.94004627746	135.103207600203	2185.36169309595	789.306648214163	208.566603463712	1513.40946528337	1069.72148679983	140	1731.07615492379
530.74198333641	141.95927654881	878.959207428807	817.509044654991	223.86864254233	1071.92214603366	585.370083804129	149.772472441285	858.543627949326	1209.10496468289	159.184813108242	1533.23292148436	1181.56148626486	139	2071.52357806435	1067.84845669707	148	1539.39336287577	474.921018372186	134.617755056835	704.393683315796	1126.54854220761	167.243141865278	1518.16225776385	629.825963269522	147.938843073884	870.953404283028	943.002823451447	181.915317843702	1184.38206175901	1148.37908943368	182.755530911825	1878.81986233458	1261.06175793741	146.797037411537	1567.9274404917	947.171426158051	171.641183100288	1860.24608740817	1215.81853787516	135.106530629557	2179.97404804332	788.514618440746	208.391281959909	1511.22676455316	1068.9269123665	140	1729.1070913157
529.603459977212	141.976220778044	876.421094494675	816.215245203789	223.820705227444	1070.13499113544	584.324088345163	149.769379911035	856.645130107923	1206.54068023771	159.175054304917	1529.85250074337	1179.59505653795	139	2066.16646928694	1065.0707153415	148	1533.95343498819	474.026428105528	134.541323295573	702.398396203161	1122.39036175135	167.12470834005	1509.60887094943	628.92627999813	147.917596325812	868.962026637027	941.013323853473	181.744123235566	1180.32283656397	1147.13566604288	182.66163929289	1875.59904858316	1259.20672717923	146.742542020895	1564.29864572711	945.643678724077	171.559317772215	1855.93502345599	1213.74451753583	135.117932698753	2174.4448561093	787.639690603735	208.231663209899	1508.67297337233	1068.17051769513	140	1727.04861617344
528.450127659987	141.988250197392	873.917373324778	814.856301029252	223.756736162812	1068.29138249492	583.27945450855	149.76596590939	854.799083382049	1204.04852577755	159.159183168863	1526.64213689029	1177.77494433731	139	2061.42615206249	1062.6297377789	148	1529.37837277905	473.143857830909	134.471760585564	700.497382133369	1118.73573762112	167.029489498217	1502.33709580815	628.020231873407	147.898917788843	867.008061335069	939.29751122169	181.605230042967	1176.85845092849	1145.97221685281	182.560644995111	1872.55055596318	1257.67764298615	146.698054396982	1561.33782674247	944.188821753297	171.477538475247	1851.71836838594	1211.91743648665	135.137938458618	2169.38816495814	786.779903932604	208.107069196868	1506.09993807619	1067.54605743834	140	1725.23264038169
527.392285939691	141.995349747749	871.640516618248	813.552509904821	223.682356984215	1066.51588842618	582.332100903011	149.763970102933	853.117990192285	1201.87130709367	159.137676600757	1523.82303541772	1176.25837047752	138.998672777103	2057.72476184117	1060.75746129365	148	1526.10464532509	472.347825367054	134.413926688802	698.868350478768	1115.89288723986	166.963770233229	1496.96246498864	627.191155665529	147.886102621199	865.273979939697	937.999990839574	181.511766139093	1174.29288962416	1144.99017351624	182.463059757792	1869.9471120265	1256.5883653705	146.671123031242	1559.29105789248	942.930611044248	171.407513632506	1847.97750899929	1210.47217115307	135.163921334492	2165.29959094583	786.011844626047	208.027304491707	1503.8189671938	1067.10353212286	140	1723.91535061543
526.521810665399	141.998672777103	869.740244611487	812.402531737203	223.603009278436	1064.89810613711	581.558464672463	149.762280360677	851.683680409879	1200.19007558668	159.112832013765	1521.53387429439	1175.1521289354	138.995349747749	2055.31515339721	1059.5895454948	148	1524.34790394317	471.700544067377	134.370116269583	697.64560367049	1114.045175482	166.927609120911	1493.80420145054	626.50768616456	147.881540282327	863.893241481497	937.193184880837	181.469308380168	1172.77095035641	1144.25068441763	182.381194429719	1867.95076222872	1255.97662691392	146.66656069237	1558.24021195338	941.94729434975	171.358099268089	1844.99102894164	1209.46805516636	135.192693669294	2162.4901657087	785.382803361612	207.994557381035	1502.05699082087	1066.84922759677	140	1723.24095479721
525.900482017363	142	868.31353089529	811.471370069464	223.523173815352	1063.4854989705	581.006820706345	149.760443021937	850.54304507536	1199.09947420206	159.087053926439	1519.82293666011	1174.50430876467	138.988250197392	2054.26477585734	1059.15643946697	148	1524.09104166429	471.246100974957	134.339693492228	696.905558575143	1113.24430738342	166.917972289496	1492.87156717177	626.013217729025	147.886102621199	862.944554308172	936.877712560042	181.476237114528	1172.29465174185	1143.77215128648	182.325371816179	1866.62321304772	1255.81220744252	146.685239229338	1558.13491076101	941.267388005777	171.333300670248	1842.90871008963	1208.88587750426	135.220080274945	2161.06075137952	784.908163259571	208.002727103602	1500.93497787233	1066.74423037669	140	1723.22824902281
525.550794736582	142	867.399846982046	810.781026444009	223.446659702933	1062.29152982083	580.687844856649	149.756313960347	849.713924217849	1198.59720144497	159.062484149013	1518.66197884311	1174.29983324795	138.976220778044	2054.4767470996	1059.38457076517	148	1525.12195551576	471.003164257366	134.319237299626	696.662781484297	1113.41507951016	166.929551276107	1493.91382986591	625.724750418212	147.898917788843	862.447384861329	936.994670221297	181.524327314962	1172.75293385298	1143.53639517738	182.303370249857	1865.94170442692	1256.01574932135	146.723863483927	1558.83346274423	940.879876853027	171.331523014614	1841.76635310557	1208.65323638429	135.242887873503	2160.9366008679	784.576467341507	208.042833722609	1500.47613192589	1066.72623646811	140	1723.80074382764
525.462538466445	142	866.991427163793	810.321247405166	223.37583188687	1061.30812041373	580.584236137811	149.750256503551	849.195035893977	1198.60750726037	159.04072345119	1517.97599582412	1174.47233599892	138.95927654881	2055.73302673624	1060.12789137777	148	1527.10533202457	470.964961128245	134.305613596437	696.878368874713	1114.39196273625	166.956570351639	1496.50993446584	625.633895204635	147.917596325812	862.374453680329	937.45144781123	181.600736358548	1173.96868085459	1143.50351658423	182.316704174426	1865.8289520959	1256.48379535111	146.775790663465	1560.15293589545	940.746005807366	171.347664270524	1841.49780172046	1208.66939684268	135.257457979105	2161.90839112321	784.361078701185	208.103207600203	1500.62003342207	1066.72536431568	140	1724.81045980614
525.595824348147	142	867.047632517739	810.053788761975	223.31352168234	1060.52350569899	580.654340035581	149.742280163034	848.974759589141	1199.00228828658	159.023779221956	1517.67652879241	1174.92965619227	138.938843073884	2057.7486415781	1061.21182686128	147.998672777103	1529.66305394477	471.107658145502	134.295646256637	697.475934966657	1115.96524205998	166.994805573374	1500.16940448508	625.722429377461	147.938843073884	862.671261124503	938.152538187545	181.690854515393	1175.74907324028	1143.63608963755	182.361544269352	1866.19489020057	1257.1269034752	146.832660177739	1561.92059262694	940.811413308181	171.374274164869	1841.97379253463	1208.82718563378	135.262020317978	2163.70167837834	784.227672693029	208.172534248886	1501.2571327007	1066.67927162528	140	1726.08589950529
525.895540545552	142	867.502318224261	809.930815578342	223.261586774657	1059.92765864819	580.847258404543	149.733669231455	849.033078750924	1199.63977103938	159.011749802608	1517.67831113332	1175.56960046641	138.917596325812	2060.21667070641	1062.46448129083	147.995349747749	1532.44171598724	471.394154952874	134.288020708445	698.357529600863	1117.91847749531	167.042050674087	1504.41069149136	625.961955000696	147.95927654881	863.276624261725	939.009752695669	181.780186923941	1177.91980434661	1143.90055997543	182.429803387077	1866.96735741004	1257.87309018032	146.886369820086	1564.00280598438	941.024477388994	171.403639839184	1843.02681386084	1209.0413843456	135.255703041147	2166.02792883925	784.147464325173	208.241319782108	1502.25505464084	1066.55167523534	140	1727.46222302438
526.298474712557	142	868.271082255578	809.900607200833	223.220689866218	1059.51159006807	581.107857852454	149.726136403815	849.338353039151	1200.38626735445	159.004650252251	1517.90620345727	1176.29872225268	138.898917788843	2062.84441812147	1063.74738036257	147.988250197392	1535.15494189445	471.781537101728	134.281584934473	699.419770436572	1120.05481179456	167.094780826949	1508.81821319127	626.325950020262	147.976220778044	864.126441972499	939.959140970341	181.857940345879	1180.3337897693	1144.27847569391	182.511149958225	1868.08619961633	1258.68343139433	146.930847074603	1566.30112588319	941.331232898047	171.431540394586	1844.47087429189	1209.24328687145	135.238758811913	2168.61373555069	784.093464678869	208.302033516396	1503.47333409689	1066.32399005883	140	1728.79726466782
526.743112525657	142	869.253296280929	809.915379575657	223.191588749539	1059.25624729494	581.386495484044	149.719036853457	849.840047686251	1201.12940373148	159.001327222897	1518.28397206843	1177.04471976393	138.8861026212	2065.37275865137	1064.96412524164	147.976220778044	1537.59623164637	472.228427841546	134.277115867616	700.563979365321	1122.20991395266	167.150660150662	1513.0563024427	626.785390209816	147.989577420289	865.158004773217	940.952423626539	181.919097271995	1182.87093562243	1144.75535978014	182.595373815699	1869.50248267466	1259.53621709889	146.963143752539	1568.74220236242	941.688457120286	171.456156648397	1846.12202841655	1209.3944534033	135.21261319447	2171.22488610425	784.049918817286	208.349839362489	1504.78231650125	1066.00387343416	140	1729.98600200435
527.176284103871	141.998672777103	870.33470840687	809.932975370939	223.173317297408	1059.12463353451	581.641377641366	149.711217232396	850.464317516176	1201.79009248838	159	1518.72527622509	1177.75703552035	138.881540282327	2067.57673620411	1066.05920378521	147.95927654881	1539.62754135723	472.695701208606	134.274287836477	701.699942172888	1124.2529570201	167.205937884404	1516.86153397678	627.308767973078	148	866.305870842155	941.948758332894	181.963143752539	1185.42237182158	1145.31360145918	182.674454460534	1871.15829910127	1260.41308384503	146.983599945141	1571.24933044437	942.057014741251	171.478147845324	1847.81300394795	1209.47239567327	135.179704557167	2173.67383313613	784.00702220996	208.381783499838	1506.07119970468	1065.61265415065	140	1730.96256202006
527.558424881897	141.994022524852	871.399173369779	809.922153891721	223.165305267563	1059.06076861151	581.84457419307	149.700229488947	851.122709641447	1202.32278494842	159	1519.1367987297	1178.4082456817	138.8861026212	2069.28101112266	1067.01098730284	147.938843073884	1541.16885704432	473.151428176024	134.273430318903	702.748977695156	1126.08781353872	167.255703041147	1520.03652833175	627.859588033646	148.009095356814	867.49480481441	942.904466969475	181.994022524852	1187.87165609131	1145.92232617443	182.741388521285	1872.96291700014	1261.28325851144	146.992695301956	1573.71915120939	942.400307951483	171.50192706728	1849.40089077827	1209.46013171732	135.14446010814	2175.81542256647	783.958762599059	208.397941980776	1507.25417284712	1065.17566249995	140	1731.6993858178
527.865087699271	141.983599945141	872.33538237357	809.861837327725	223.166106074963	1058.99055834457	581.981618706073	149.683122102287	851.719946684184	1202.71483829405	159	1519.41802210908	1178.98968361219	138.898917788843	2070.35902690622	1067.82170034052	147.917596325812	1542.18154459936	473.570637535096	134.273975268273	703.645412861608	1127.65199831596	167.294841245487	1522.44317450478	628.396770501091	148.019128969705	868.646996827923	943.772923266933	182.017801746809	1190.10407321142	1146.54052021852	182.793332856278	1874.80325482771	1262.10560451876	146.992695301956	1576.03070488068	942.68702872247	171.531081901254	1850.77440820201	1209.34729802721	135.110833148395	2177.54233567402	783.904312424306	208.399263641452	1508.27135599353	1064.72205924522	140	1732.19664925773
528.088249222133	141.964470975436	873.054107446275	809.744184038197	223.172260194368	1058.83889991909	582.052002299907	149.6575102313	852.171729901489	1202.9812431383	159	1519.48117302505	1179.50074566766	138.917596325812	2070.74185362451	1068.50465220492	147.898917788843	1542.65984150111	473.934945315217	134.275185256861	704.338551637745	1128.90840518073	167.32073824581	1523.99991078472	628.879383044932	148.027646425685	869.684394251124	944.506674784735	182.039396228293	1192.00964399936	1147.12025212826	182.826868843732	1876.54800086966	1262.82590938459	146.983599945141	1578.05257697621	942.894472491908	171.568949796456	1851.86483279683	1209.12592660578	135.084656531333	2178.79275607858	783.847211012562	208.388203411766	1509.09769390544	1064.28007579233	140	1732.48839369778
528.233904281438	141.935497326854	873.500878959238	809.572196081717	223.179704557167	1058.54623224123	582.066841168628	149.623831786216	852.421479098102	1203.15968810238	159	1519.27046823715	1179.94326140028	138.938843073884	2070.42906378997	1069.07548754481	147.886102621199	1542.63223448786	474.233909019039	134.278416898067	704.797321062724	1129.84558703925	167.332461855973	1524.69011481858	629.269963547917	148.032727451909	870.543728086314	945.062843646791	182.061156926116	1193.50458338567	1147.61420139894	182.841011234273	1878.07591870462	1263.39129346797	146.964470975436	1579.67397017958	943.008876430977	171.616353364885	1852.64224178682	1208.79189138606	135.069152925397	2179.54321156429	783.792960324326	208.36776993684	1509.73421254756	1063.87416454696	140	1732.62527350524
528.315373851868	141.898119622694	873.662473707145	809.358207574477	223.184813108242	1058.08193603067	582.041769809679	149.583880308731	852.449318993232	1203.29484047139	159	1518.7771810071	1180.31673590705	138.95927654881	2069.49672064953	1069.5477884983	147.881540282327	1542.17059865017	474.462416136811	134.285910170988	705.01668649892	1130.47170617135	167.334239511607	1524.57577059488	629.543731234767	148.02993042039	871.185271909879	945.418063798243	182.082403674188	1194.54965849675	1147.9896786471	182.83536637491	1879.30108189939	1263.76466330715	146.935497326854	1580.83363702961	943.033021566466	171.671390230129	1853.12193673632	1208.3570161212	135.06715711894	2179.82144746222	783.753053219406	208.340639189219	1510.2108507736	1063.53124187433	140	1732.67626362711
528.350356268322	141.856439399695	873.573059323496	809.120653617642	223.184813108242	1057.46071041454	581.994464961632	149.543630007954	852.278947337328	1203.43192082896	159.001327222897	1518.05214361365	1180.61193994332	138.976220778044	2068.08700083739	1069.92825573621	147.886102621199	1541.38218579526	474.619839510917	134.299224298851	705.018361051248	1130.80895075346	167.331173243374	1523.78610174856	629.694465540623	148.014818840187	871.605579313222	945.572634042171	182.101082211157	1195.16495009863	1148.23538745152	182.810529028828	1880.19411638257	1263.93596917427	146.898119622694	1581.54016310485	942.992007514483	171.729983682742	1853.36506747387	1207.85813124845	135.078884203872	2179.72099858409	783.748618705435	208.308609572228	1510.59112713491	1063.28623009347	140	1732.72784083896
528.357230122819	141.816514114655	873.306159157276	808.880341886972	223.179704557167	1056.73893646485	581.939373424042	149.509835153182	851.970906473199	1203.60921608393	159.004650252251	1517.20477468881	1180.82071201348	138.988250197392	2066.39888610008	1070.22659095163	147.898917788843	1540.41806607628	474.711629924296	134.319231737404	704.855471547704	1130.8939527893	167.329407936021	1522.515067244	629.734463098195	147.986120001172	871.831540478256	945.55402038825	182.113897378801	1195.41860680964	1148.36328146358	182.770342245065	1880.77877328369	1263.93013802963	146.856439399695	1581.8718902092	942.927335336012	171.788089447622	1853.47020036818	1207.35787002023	135.104781204195	2179.39302301323	783.809544864284	208.272536373288	1510.96223405705	1063.17667717195	140	1732.87364860461
528.348524557446	141.785020410043	872.960223184857	808.654526535421	223.170932971471	1056.0054575987	581.884775398303	149.488134843887	851.610744934463	1203.85291197063	159.011749802608	1516.3901932857	1180.93985661795	138.995349747749	2064.65956815626	1070.46063354896	147.918923548709	1539.45766208466	474.750831815487	134.345203565919	704.607987405332	1130.77979983225	167.332924706563	1520.99909132474	629.695226207101	147.944470777792	871.91652975795	945.414683919987	182.118459717673	1195.41840311806	1148.41118160512	182.719828163974	1881.12563095542	1263.80980395151	146.816514114655	1581.96615418006	942.899852792201	171.841794282795	1853.56149646834	1206.94800120583	135.143915933765	2179.03296780946	783.978346218008	208.232706867713	1511.43714708107	1063.25137145569	140	1733.20677877843
528.33317454248	141.767642903526	872.63926206969	808.456910993093	223.16278304561	1055.36286909928	581.833779949084	149.482188727497	851.291947570406	1204.18219168558	159.025106444853	1515.78521587106	1180.98031605194	138.998672777103	2063.09520808979	1070.66568305263	147.943493326134	1538.69459948381	474.757190750507	134.3736357399	704.372438632961	1130.5372639539	167.342142035288	1519.49369417535	629.616756294765	147.893817103856	871.923029448794	945.221018327046	182.1138973788	1195.28522491533	1148.42643271692	182.66708771129	1881.32478142258	1263.65978611291	146.785020410043	1581.98983074656	942.981038887089	171.887839628708	1853.77928567575	1206.73787409433	135.196127329702	2178.86165738366	784.310738762335	208.189463360493	1512.14710670411	1063.56114293322	140	1733.81532317467
528.313666909316	141.767642903526	872.431996937495	808.293842759625	223.159532940102	1054.90211108386	581.782874786682	149.491773586339	851.09299550155	1204.60975014544	159.046700926337	1515.55612238097	1180.97139026612	139	2061.90315630993	1070.89715650687	147.971026351418	1538.31716110039	474.759183649675	134.400044652147	704.250431924072	1130.25390803091	167.353693497048	1518.24904141021	629.539116424852	147.840816831137	871.911061346399	945.0425777626	182.101082211157	1195.1391373591	1148.45910723848	182.621186988929	1881.46932453675	1263.57687405121	146.767642903526	1582.11549428709	943.241792231951	171.925766048379	1854.26151433888	1206.83870459677	135.260519371794	2179.08849715449	784.866326819001	208.146215046098	1513.22580665608	1064.15599889662	140	1734.76994094448
528.291354037621	141.785020410043	872.398061796932	808.167101929744	223.164610907414	1054.68466182768	581.726129548182	149.513226437151	851.063360841999	1205.14639749996	159.077556980975	1515.82943403299	1180.95274898271	139	2061.21628096247	1071.21689864825	148	1538.47215587082	474.787648259411	134.417968370865	704.327361737097	1130.01925591668	167.361461696999	1517.47247747602	629.492276057292	147.793451990471	871.926003358272	944.939816232689	182.082403674188	1195.08189950199	1148.5454103877	182.591261375713	1881.63341710312	1263.64494074589	146.767642903526	1582.48923387374	943.735218551249	171.954626296559	1855.12010364015	1207.3350091237	135.333710454859	2179.87262438517	785.692942402499	208.106530629557	1514.7863902988	1065.06560146574	140	1736.11488728511
528.265281434075	141.816514114655	872.558046398373	808.075333819918	223.181744070663	1054.72795471858	581.65947262081	149.541878544765	851.213446358254	1205.8038313154	159.11925992165	1516.6610852832	1180.96265377966	139	2061.08301978347	1071.67475657854	148.030300871479	1539.23704593627	474.869626266996	134.422244697258	704.656474309993	1129.90679180378	167.358545752483	1517.29623866163	629.49344871422	147.759211323098	871.991086065792	944.95510494977	182.061156926116	1195.18122834505	1148.70325089506	182.584157018181	1881.85294025404	1263.91835563682	146.785020410043	1583.19397522923	944.482320330944	171.974893555147	1856.43101702271	1208.26211019493	135.411554918661	2181.30360529651	786.810774307978	208.076252475754	1516.89884238715	1066.28974098867	140	1737.86237972487
528.23951100532	141.855112176798	872.902379552651	808.021763304935	223.21228581064	1055.01040552133	581.586768398522	149.572586501081	851.521708617458	1206.59686341791	159.170235136553	1518.03670633869	1181.03129077966	139	2061.45595086256	1072.30012414951	148.061156926116	1540.5947297157	475.0237211191	134.41021527791	705.245760107808	1129.96747575648	167.340626771366	1517.74976532985	629.548123060104	147.743340187044	872.115326955592	945.106208195647	182.04072345119	1195.4687155296	1148.92780044438	182.601534524698	1882.12880315457	1264.40625197196	146.816514114655	1584.23707162378	945.458603564168	171.988250197392	1858.20703760888	1209.5836167455	135.487644790788	2183.37198639502	788.195550929231	208.05930824652	1519.56245776974	1067.77879417146	140	1739.97351792696
528.22175253148	141.893469370443	873.39447996861	808.01310018791	223.257284255818	1055.47856063693	581.519859492722	149.602040088774	851.945311688445	1207.53884952841	159.228854781612	1519.8702896851	1181.17199498639	139	2062.21331931098	1073.08717175897	148.0928262539	1542.43966200282	475.254864702591	134.380567949029	706.061401555829	1130.21820734541	167.306595855269	1518.76235520079	629.656418977067	147.747642705883	872.296539146054	945.390447490325	182.023779221956	1195.93020645521	1149.20090946841	182.641459809738	1882.42498064814	1265.07924154192	146.856439399695	1585.54111948509	946.594963749614	171.995349747749	1860.39297111603	1211.19471637106	135.555884111807	2185.97342936776	789.773632515054	208.057123506049	1522.69610122332	1069.43790003242	140	1742.359995455
528.224299904845	141.923747524246	873.986060876329	808.062576617208	223.315276620298	1056.06091456742	581.48095207291	149.629339556042	852.433509234847	1208.63952366151	159.291777015081	1522.0224233153	1181.37926328511	139	2063.18087886404	1073.99868977386	148.124861433113	1544.58958472715	475.554340307705	134.335564696677	707.033824072019	1130.64299596997	167.258785202002	1520.17434708899	629.815394694377	147.770162959557	872.528438955059	945.784001320997	182.011749802608	1196.51685957254	1149.49315608501	182.697256230832	1882.6827563591	1265.8692587232	146.898119622694	1586.96242934225	947.788698889999	171.998672777103	1862.86042543359	1212.93778857054	135.610643088624	2188.91083720063	791.431554829466	208.068461624161	1526.13229414157	1071.13334488206	140	1744.87078196284
528.258474251236	141.94069175348	874.627334194179	808.179670315851	223.384263467298	1056.68613312475	581.492149129635	149.65471055853	852.943658249063	1209.88727245189	159.354506770194	1524.32852907607	1181.63959575621	138.998672777103	2064.17824704357	1074.97775978514	148.15462082999	1546.82612528302	475.903923374555	134.279482263103	708.076361981018	1131.20357885346	167.202962588463	1521.77627423433	630.025978023858	147.805816725378	872.807415850551	946.254690485783	182.004650252251	1197.16299852823	1149.77586097666	182.760443021937	1882.84632660511	1266.6927790704	146.935497326854	1588.33036770875	948.92133704534	172	1865.42484440462	1214.63023323699	135.648450595298	2191.92684687375	793.032492064969	208.089708372233	1529.64072706985	1072.71234497195	140	1747.31047952466
528.33258547236	141.942876493951	875.272378556888	808.368484948012	223.460775901029	1057.28964729861	581.569576139203	149.679876686489	853.444262521533	1211.24503590612	159.412747751794	1526.61411166144	1181.93215346184	138.995349747749	2065.06406892607	1075.9553765163	148.179616643789	1548.94002376606	476.279305158953	134.219014909909	709.104593069488	1131.84603797278	167.146906347334	1523.35865021358	630.287919642967	147.847771757942	873.134229469004	946.764495448551	182.001327222897	1197.80569507186	1150.02444691609	182.822665313089	1882.87899383339	1267.46337426619	146.964470975436	1589.48893885425	949.885337116511	172	1867.87190758988	1216.10690549584	135.667149762489	2194.74352330078	794.445243958845	208.118809488912	1532.95719030482	1074.03465825867	140	1749.45667381278
528.445694669129	141.932865598736	875.883055856156	808.619011966537	223.540551321868	1057.82205472288	581.713963609483	149.707463429068	853.914551460653	1212.64519751381	159.462994340893	1528.72022201378	1182.2391606847	138.988250197392	2065.75832924559	1076.86924320381	148.196301052989	1550.76747950179	476.656523886183	134.159960655163	710.051477694755	1132.51396312224	167.09668595068	1524.75116550422	630.601998005852	147.889166851605	873.513414919365	947.28433862387	182	1198.40874089577	1150.22484298854	182.877417048997	1882.78350161817	1268.11458254407	146.983599945141	1590.3425628797	950.59799914052	172	1869.99527952731	1217.24137209482	135.66593421168	2197.11208350683	795.563588242823	208.155403878512	1535.8285602608	1074.98925743082	140	1751.09850317584
528.59032537207	141.916269102915	876.429009307165	808.909992690622	223.620386784953	1058.24760517613	581.911332331373	149.736992260808	854.340016370033	1213.99737324104	159.501126863303	1530.51605244706	1182.54878659928	138.976220778044	2066.24597610039	1077.67108579283	148.202164422313	1552.21252053356	477.015086039074	134.107857852454	710.875947992424	1133.15488159717	167.057123506049	1525.8471178359	630.964571478238	147.925766048379	873.953680440873	947.795097511415	182	1198.97467588534	1150.37388432106	182.921115796128	1882.60656737459	1268.60856482959	146.994022524852	1590.87848971174	951.021899959112	172	1871.63927580278	1217.9763227667	135.64523367581	2198.8609873785	796.330673744062	208.202016891472	1538.06303862475	1075.52314724251	140	1752.07988359975
528.75245944051	141.898917788843	876.889494724152	809.212081841929	223.69647318231	1058.5482462097	582.135672798343	149.769379911035	854.710172986301	1215.20765042032	159.52491082286	1531.91426035653	1182.85333710838	138.95927654881	2066.56272609722	1078.33274828674	148.196301052989	1553.25034288297	477.341248493654	134.06715711894	711.564389919291	1133.72617464225	167.029756697104	1526.606621515	631.368394379703	147.954626296559	874.466151484222	948.290545967558	182	1199.53993575725	1150.48273268068	182.953299073663	1882.42974422712	1268.94461882168	146.998672777103	1591.16527350663	951.159982448489	172	1872.72939601347	1218.31798563846	135.60785597165	2199.92863930416	796.741302521272	208.263261730966	1539.5632591912	1075.64055436737	140	1752.33304096529
528.914801994066	141.887429844096	877.253505039135	809.49397219587	223.767822189035	1058.72085434106	582.355751420738	149.801446089867	855.016510108264	1216.19344135624	159.534317155172	1532.87960812882	1183.14689664886	138.938843073884	2066.76992646021	1078.84622949651	148.179616643789	1553.9138002823	477.627151064593	134.040179276815	712.125986405443	1134.19953592662	167.013077025505	1527.04846776619	631.801342028459	147.974893555147	875.055708390575	948.774820447331	182	1200.15410822711	1150.56931161039	182.974893555147	1882.3395325711	1269.14817849615	147	1591.3176345812	951.053409192842	172	1873.28039016205	1218.32793992548	135.55790263594	2200.36047350797	796.839038735748	208.343272817222	1540.33906798454	1075.39989700887	140	1751.89159380369
529.062101329697	141.886190534578	877.517703879004	809.72845088821	223.8330878928	1058.77385735289	582.541888354606	149.829764863447	855.251831474925	1216.90088075781	159.529561075111	1533.42535152447	1183.4232478333	138.917596325812	2066.93149926728	1079.21779117248	148.15462082999	1554.27439925867	477.869515443571	134.029477080364	712.5853999121	1134.56066260503	167.004650252251	1527.23172058492	632.246125423215	147.988250197392	875.723961662917	949.254721434532	182	1200.86492509779	1150.65396501324	182.988250197392	1882.41180739797	1269.26383372022	147	1591.4654886771	950.767952165435	172	1873.38905709851	1218.10016069248	135.500063932003	2200.29107624583	796.701413689923	208.444805461116	1540.49981418619	1074.89806247632	140	1750.8804069412
529.180562726058	141.897852423808	877.690178413815	809.897107194202	223.892489880959	1058.72894255435	582.672470142606	149.851766429769	855.414024742287	1217.30693955309	159.512876665911	1533.6070249427	1183.6671153288	138.898917788843	2067.09395599963	1079.45460519236	148.124861433113	1554.40853558361	478.066487872994	134.035734172251	712.97239360968	1134.79859775833	167.001327222897	1527.22794668151	632.68405615642	147.995349747749	876.462750304412	949.734352536734	182	1201.69851524049	1150.75207751062	182.995349747749	1882.68853016261	1269.33470877664	147	1591.71278519845	950.380502564514	172	1873.20958947703	1217.73932113753	135.439448480488	2199.91020413697	796.423727065188	208.566429740426	1540.22380389181	1074.25107776606	140	1749.49302475376
529.26163193644	141.922697010799	877.787306905912	809.990472488967	223.947549463878	1058.61433151366	582.735407097794	149.865936345159	855.507905700555	1217.41997510459	159.488100785746	1533.50636928548	1183.85940171823	138.8861026212	2067.27998906678	1079.56114886762	148.094153476797	1554.38027037172	478.218276757132	134.058450728946	713.31561596623	1134.90811192237	167	1527.10150910594	633.098125634923	147.998672777103	877.255469520901	950.21088588031	182.001327222897	1202.64711867444	1150.86964525274	182.998672777103	1883.16370217065	1269.39328250397	147	1592.10888505023	949.960265173312	172	1872.91583496239	1217.3351061642	135.379613215047	2199.41903674614	796.091440049348	208.700506464436	1539.71259575714	1073.56547620973	140	1747.94698778922
529.301960858588	141.958319777002	877.831962673088	810.010357566793	223.998672777103	1058.46060731518	582.73087530369	149.872222622371	855.546675034447	1217.27487874188	159.459448678132	1533.21527420277	1183.97995867003	138.881540282327	2067.48943201366	1079.53634899813	148.067134401264	1554.22778038749	478.325000116522	134.098013173577	713.638077955718	1134.88832134971	167.001327222897	1526.8980955553	633.476951063847	147.998672777103	878.08037688806	950.674190168937	182.004650252251	1203.66965478026	1151.00458833899	182.998672777103	1883.78690678439	1269.45576390441	147	1592.63916807443	949.560377392245	172	1872.65851637666	1216.95153635826	135.32485423823	2198.98270998301	795.767785085271	208.835816807647	1539.14389620631	1072.92459570012	140	1746.43631466101
529.302763831911	142	877.849780953713	809.966580265225	224.047800283871	1058.29565177986	582.669720495605	149.87381134399	855.552786860363	1216.92156095846	159.433390974066	1532.816825096	1184.01783098358	138.8861026212	2067.69789785651	1079.3782943225	148.048028149234	1553.95442460194	478.388811488432	134.152883822482	713.950014975657	1134.74731123454	167.005977475148	1526.63477624509	633.821079291244	147.994022524852	878.913409575468	951.114434697543	182.011749802608	1204.6993934883	1151.15403624509	182.994022524852	1884.47436380755	1269.5286684432	147	1593.23471763871	949.212183016848	172	1872.54274000005	1216.62354015151	135.277315453081	2198.7174808673	795.487442742762	208.957695334139	1538.64803108288	1072.37733249157	140	1745.10232608178
529.27272001112	142.041680222998	877.871856121431	809.878318180509	224.095760316433	1058.14639821572	582.571727132414	149.874352818591	855.560704530545	1216.4255196762	159.415687188981	1532.3908262869	1183.9799238374	138.898917788843	2067.88304418362	1079.09910145273	148.041506499712	1553.55678055412	478.418497427612	134.220689866218	714.256573948036	1134.51561572896	167.017727277756	1526.32635345339	634.140911716732	147.983599945141	879.731892159297	951.527276699932	182.023779221956	1205.66001520555	1151.31942252251	182.983599945141	1885.12764121693	1269.62059657661	147	1593.80201165301	948.92974999211	172	1872.61905867126	1216.36553911633	135.239818835924	2198.68417623186	795.259342020813	209.052463743234	1538.29436535318	1071.93932720606	140	1744.01761392561
529.224730527196	142.077302989201	877.930500325527	809.767788130503	224.143132885243	1058.03590017315	582.461104361856	149.876890030076	855.612678024234	1215.85814887262	159.41216694367	1532.00944714015	1183.89803306876	138.917596325812	2068.0354591766	1078.73366664256	148.051929079423	1553.041669095	478.429020338555	134.29763725592	714.559433155431	1134.25189789257	167.041506499712	1526.00736830643	634.457192913698	147.964470975436	880.522763537219	951.924941671081	182.04072345119	1206.49955734594	1151.51497691018	182.964470975436	1885.67013498395	1269.75536443962	147	1594.26872846419	948.715750982296	172	1872.88313217049	1216.18252503832	135.215256299408	2198.88833691774	795.076028180067	209.112058140176	1538.09459872099	1071.60341688772	140	1743.18234702837
529.17726578008	142.102147576192	878.058624644604	809.661455051635	224.190127136879	1057.9824466379	582.363809929628	149.884775398303	855.752623915198	1215.29280100079	159.427519392372	1531.73664704443	1183.82144272891	138.938843073884	2068.16924213456	1078.34083622653	148.082229950902	1552.44490664055	478.441830165174	134.379525301669	714.85751948645	1134.04261773776	167.082229950902	1525.7501702516	634.795207353211	147.935497326854	881.288414809194	952.337816391281	182.062484149013	1207.2157655218	1151.76610998751	182.936824549751	1886.07508484195	1269.97402162308	147.001327222897	1594.6198883971	948.571604545497	172	1873.30022172352	1216.08128674356	135.205339920825	2199.30557291035	794.926342352576	209.134343922896	1538.02643259639	1071.35091467928	140	1742.54713705089
529.151026624583	142.113809465422	878.287643521796	809.58671957343	224.237719639323	1058.00233957638	582.302827926575	149.898917788843	856.018501739625	1214.79925831965	159.463510190529	1531.62799055928	1183.81357812917	138.95927654881	2068.33584258161	1078.00216655059	148.132964297307	1551.84820918669	478.482665022413	134.460514043167	715.156039800173	1133.99543968152	167.143386877018	1525.68229141121	635.181347592434	147.899446845591	882.053761675317	952.81854691707	182.089708372233	1207.8806572006	1152.11273917173	182.904097097841	1886.39011161714	1270.33775451167	147.005977475148	1594.92825758515	948.502405434484	172	1873.83426646489	1216.07788185921	135.210508860428	2199.91384258276	794.80363004018	209.127925663518	1538.0587863318	1071.16421845066	140	1742.04582954989
529.168403597248	142.112570155904	878.639126897279	809.568484411396	224.284132515354	1058.10464420149	582.295465914932	149.917596325812	856.427892539141	1214.43617588689	159.518327122139	1531.71847539885	1183.93487161889	138.976220778044	2068.61778183437	1077.80589478971	148.20201132925	1551.37244135956	478.576194343186	134.53545063688	715.468284265782	1134.21633012133	167.225790551206	1525.9693707627	635.640788763618	147.861089651946	882.866502797313	953.431170982263	182.123459741163	1208.63251951676	1152.59739929517	182.872839454554	1886.73436452132	1270.91181386783	147.016400054859	1595.34512285527	948.520856981349	172	1874.46325696407	1216.19839517236	135.230969860204	2200.70350865435	794.709475472724	209.104855673248	1538.17023623214	1071.03506851505	140	1741.62070887043
529.248794561902	142.101082211157	879.123499806665	809.629450645506	224.328609769871	1058.29242746112	582.354439111932	149.938843073884	856.974933620649	1214.25075353107	159.588553278658	1532.01858121276	1184.22762336378	138.988250197392	2069.11369274254	1077.82759692893	148.286149311173	1551.15653726912	478.742020801409	134.600910081835	715.817597034132	1134.78538784155	167.326872762363	1526.77720959427	636.193441387647	147.828263917263	883.790861923541	954.236783429436	182.16715368112	1209.64725789274	1153.25866900646	182.852043139219	1887.27345450483	1271.74709487753	147.035529024564	1596.06347500796	948.643922952057	172	1875.19585125381	1216.47425780722	135.265715836247	2201.69733973999	794.65313244352	209.080809252405	1538.36370567714	1070.96844062616	140	1741.24967437859
529.407723087675	142.082403674188	879.740926571194	809.788569783982	224.369530437019	1058.56918097789	582.486541874649	149.95927654881	857.63419370124	1214.27274493288	159.666739977878	1532.52141010863	1184.71349707251	138.995349747749	2069.91317808359	1078.12096020221	148.379613215047	1551.32285375528	478.99176986008	134.655749731121	716.236245536948	1135.74473014477	167.440770141163	1528.22177866172	636.85259231314	147.808799631999	884.891746129481	955.270961486956	182.224468890531	1211.08010902298	1154.11512108824	182.849523083189	1888.16738232531	1272.85887230846	147.064502673146	1597.2498074579	948.888271871567	172	1876.06430808005	1216.9327801465	135.313790929684	2202.93989253445	794.647633963062	209.067029584808	1538.66460165076	1070.97856931392	140	1740.94944117596
529.650898652346	142.061156926116	880.476679854555	810.054900680623	224.405241116599	1058.93535655898	582.690554838615	149.976220778044	858.366033636559	1214.50793018858	159.746033966361	1533.19957108018	1185.38762597687	138.998672777103	2071.08953262568	1078.70309501132	148.475498961751	1551.95563451235	479.326901279474	134.701035521183	716.764177342877	1137.08256715525	167.559229858837	1530.33868415098	637.621469497815	147.808366354716	886.217430816259	956.53074894096	182.298007707008	1213.0092871284	1155.15884816011	182.869523280833	1889.51924068031	1274.21695801128	147.101880377306	1598.98693255328	949.264787705228	172	1877.10694894083	1217.59288181784	135.371896694564	2204.47533282337	794.705887362516	209.067754944576	1539.10897894377	1071.08689091349	140	1740.76744688503
529.972440698435	142.04072345119	881.306364167068	810.425963956043	224.435669456176	1059.38992134087	582.958158421943	149.988250197392	859.124896736263	1214.93720103839	159.818255929337	1534.01373802009	1186.21599021784	139	2072.6614176305	1079.54667181503	148.566067551333	1553.06352634766	479.739498845494	134.739384848741	717.435646460024	1138.72893178017	167.673127237637	1533.04769755713	638.48994339007	147.828799829643	887.781103434241	957.963784165689	182.388029688479	1215.40318222195	1156.34566114113	182.911203503831	1891.34282752248	1275.73958803627	147.143560600305	1601.23542435309	949.772522062194	172	1878.34599715774	1218.45277391248	135.436119888913	2206.31585815564	794.836927311397	209.080285895822	1539.72589652321	1071.31210149463	140	1740.75781821909
530.355045337506	142.023779221956	882.200050977567	810.887017152195	224.462450166518	1059.93357234791	583.273598435126	149.995349747749	859.873866539558	1215.51696525848	159.877069315584	1534.92291677552	1187.15229572382	139	2074.59892547212	1080.59088793531	148.642584792237	1554.58021082816	480.213351347247	134.773942249907	718.272006908195	1140.57386139976	167.774209448794	1536.1674592558	639.435530818793	147.867424084231	889.557340073143	959.481372040832	182.490352887843	1218.12383670705	1157.60410313978	182.968506295388	1893.55945154531	1277.31260276456	147.183485885345	1603.8434989642	950.398230949385	172	1879.77265343294	1219.49179535606	135.50112890113	2208.4256929835	795.044777126373	209.094768409095	1540.52391325033	1071.6668552232	140	1740.96372652521
530.772565916885	142.011749802608	883.123003860058	811.414375497862	224.488575987256	1060.56064481233	583.615648674335	149.997345554206	860.587344127148	1216.18418663772	159.917770049098	1535.88149209253	1188.13851107078	139	2076.82189659966	1081.74776211596	148.697974128494	1556.37481176701	480.726919452337	134.805979107809	719.27235408873	1142.48001682883	167.856613122982	1539.4501452491	640.42373243633	147.917596325812	891.483315090241	960.97560182781	182.598359026186	1220.95959625237	1158.84889857073	183.032820927509	1896.01746744256	1278.81300340873	147.216306812854	1606.58403546393	951.118993163953	172	1881.34804279343	1220.67536904744	135.561347637203	2210.72170724779	795.329654979502	209.099859804715	1541.4881792989	1072.1569352976	140	1741.40663496014
531.195950629533	142.004650252251	884.037723922965	811.981414286415	224.517637549216	1061.26021169993	583.962010014523	149.995349747749	861.248744561908	1216.87311787593	159.939364530583	1536.84325886568	1189.11959051387	139	2079.21140333585	1082.92366147622	148.727620194544	1558.2796188946	481.257030264044	134.836078665508	720.408112054495	1144.31274812229	167.917770049098	1542.63023119119	641.412405487503	147.970336778496	893.468582151723	962.346022202258	182.702100886219	1223.68099366842	1159.99512433036	183.09344674842	1898.53255183431	1280.13443365906	147.237007348724	1609.21480903539	951.901288976341	172	1883.01057668408	1221.95251268683	135.612484261272	2213.08803492568	795.685875843063	209.087845374899	1542.58567397179	1072.77392774231	140	1742.08314641151
531.598975384795	142.001327222897	884.91427512675	812.564343735772	224.552842599077	1062.02077426005	584.290964393251	149.988250197392	861.853700919273	1217.52335474442	159.942876493951	1537.77260040908	1190.0523420528	139	2081.63307505728	1084.03532210594	148.731751689869	1560.12870892212	481.779837152702	134.860734318485	721.628196643093	1145.96253927208	167.958493500288	1545.48033266286	642.356495632379	148.016579340367	895.418406685025	963.522802932805	182.79158695531	1226.10438875583	1160.97990922654	183.142226521776	1900.94139202207	1281.21214514036	147.244106899082	1611.54635729235	952.714435178355	172	1884.70167233618	1223.27379250529	135.652693762711	2215.41418432602	796.107653686396	209.058179581717	1543.78181227078	1073.50657539387	140	1742.97984384229
531.967716529176	142	885.730603135375	813.152273578992	224.596080544076	1062.83148360175	584.59011627604	149.976220778044	862.402593239598	1218.09899905938	159.932865598736	1538.64483995597	1190.90741920889	139	2083.95848476638	1085.02506644268	148.714257773664	1561.79076804138	482.277101549877	134.877417048997	722.866360866926	1147.35793866589	167.982272722244	1547.84476787832	643.213811397453	148.049394705654	897.247927308987	964.473331547867	182.859133179012	1228.12423722793	1161.76765819229	183.174256138767	1903.12580852369	1282.0267700727	147.238758811913	1613.4748767944	953.529631550979	172	1886.38819774257	1224.5936396831	135.684091291949	2217.63385127284	796.586964153058	209.017465419894	1545.0579752724	1074.33615502553	140	1744.09197736712
532.297007300461	142	886.476159242568	813.745170274244	224.649710204774	1063.68574266112	584.852122819427	149.95927654881	862.896839091351	1218.58900937435	159.916269102915	1539.4535165515	1191.66852875457	139	2086.06835400991	1085.86342787839	148.682245312127	1563.17878577363	482.735227812286	134.881719567835	724.050912968627	1148.47200414423	167.994022524852	1549.64461500232	643.951942085086	148.065553186592	898.894275459959	965.202048129328	182.901188660273	1229.71946019552	1162.35194980024	183.188680311971	1905.02520022297	1282.59613246178	147.224209336535	1614.98396048095	954.321056283135	172	1888.05522458483	1225.86895649337	135.709977922877	2219.71589192842	797.110674542736	208.978138319629	1546.40444866695	1075.23694411855	140	1745.41334065531
532.593620501418	142	887.148963978408	814.352691138675	224.712113681318	1064.58100179554	585.076615039955	149.937515850987	863.334999493092	1219.00404427901	159.897590565946	1540.20598823022	1192.32800553121	139	2087.87920738749	1086.54490826981	148.644166006909	1564.26261811018	483.146691689083	134.873013177841	725.121547971602	1149.31021155168	167.998672777103	1550.86952834245	644.548973888375	148.06600361933	900.325728604014	965.732608016201	182.917770049098	1230.9343021373	1162.74595409169	183.188317471562	1906.6311569683	1282.95669538083	147.204717526421	1616.12376754625	955.063448135154	172	1889.70123812118	1227.0574714599	135.735348994938	2221.66184263687	797.657566197058	208.952618256257	1547.82018983712	1076.17361849942	140	1746.93835514447
532.865902231616	142	887.747590065538	814.986025736314	224.782890213823	1065.51159943013	585.26647594051	149.912946073561	863.705115151159	1219.36481784095	159.881452368949	1540.90924609082	1192.87137165803	139	2089.32022067339	1087.06800143789	148.607252445849	1565.03741378786	483.507147383103	134.853093652666	726.031029348339	1149.88226120301	168	1551.5346253648	644.997319499656	148.055179450969	901.536184563815	966.092317835056	182.913917962997	1231.8415257704	1162.97466465768	183.178306576347	1907.96605617188	1283.14577057834	147.184284051494	1616.97043764109	955.731930180483	172	1891.32104771967	1228.12090880351	135.764058016311	2223.48172737651	798.201664652035	208.948481953757	1549.29783681612	1077.10753967155	140	1748.6496591743
533.118786648458	142	888.263659712731	815.647235158923	224.861089651946	1066.45928958166	585.420284252474	149.887167986235	863.984785526295	1219.68421271591	159.869790479719	1541.55830641714	1193.27318124259	139	2090.32826228191	1087.42471883563	148.576165826075	1565.50215271948	483.812541764157	134.824683837222	726.750089515386	1150.18551073984	168	1551.63935694852	645.301893100615	148.039396228293	902.534182157643	966.296887006848	182.896021769129	1232.49608821958	1163.0627823361	183.164257661406	1909.04730368528	1283.18306038597	147.165584884303	1617.57971986243	956.298677513533	172	1892.88243029435	1229.02094842113	135.797721471864	2225.16014922455	798.709280116784	208.964654209287	1550.80464199529	1077.9954494907	140	1750.49966298284
533.350244596234	142	888.681661258985	816.325956335433	224.944820549031	1067.39676595022	585.536256099831	149.862323399243	864.147347755518	1219.96621059094	159.862323399243	1542.13750626994	1193.49342120322	139	2090.84867541646	1087.58974834567	148.554052587665	1565.64533707846	484.055595853999	134.79439844251	727.266928577403	1150.19192743721	168	1551.15372166776	645.474764564945	148.023779221956	903.332420080832	966.340924346941	182.869585332032	1232.9112358014	1163.02636581668	183.149426403365	1909.86996401997	1283.06645036932	147.149426403365	1617.95780233797	956.737120336424	172	1894.31869888683	1229.72265657129	135.83643363983	2226.64005088477	799.145348110621	208.992900449643	1552.2768618148	1078.79635411389	140	1752.40644992501
533.548513996864	142	888.979367926212	816.995056465488	225.033510500431	1068.28469478695	585.607231924696	149.840816831137	864.168824431073	1220.19337414272	159.858194337653	1542.62122412152	1193.4912566323	139	2090.83288590169	1087.52932563769	148.541328857794	1565.43856247336	484.22636825967	134.767381045665	727.579793724266	1149.86167946311	168	1550.02705532942	645.534169365925	148.011749802608	903.938827046487	966.208372739268	182.838074471965	1233.0554170229	1162.87628258295	183.134859772532	1910.40345357571	1282.78174228887	147.134859772532	1618.06594441907	957.025728437545	172	1895.54158232778	1230.20306906179	135.875545651725	2227.83820806374	799.48205632672	209.019993342012	1553.62891528834	1079.47905210969	140	1754.26289630788
533.697700943438	142.001327222897	889.138912806664	817.620121244787	225.127777377629	1069.08346615681	585.627158743945	149.824945695083	864.040462323625	1220.34303739788	159.856439399695	1542.98683036087	1193.2394645214	139	2090.27238933751	1087.21877302253	148.536342278629	1564.86682090792	484.315609043711	134.748426020443	727.699895725327	1149.16974162154	168	1548.23997560961	645.501908849991	148.004650252251	904.357748193851	965.888665203148	182.802231838163	1232.88023273946	1162.62439518711	183.119874853948	1910.60845069278	1282.32340611779	147.119874853948	1617.849735631	957.158861290119	172	1896.46694404604	1230.45789425182	135.910413599677	2228.67586774346	799.703097830434	209.033246594112	1554.77471180495	1080.02547382952	140.001327222897	1755.95879941548
533.78369207652	142.004650252251	889.161905158485	818.166660479568	225.228069033316	1069.77211093765	585.595140592091	149.816514114655	863.782247047693	1220.39534995778	159.856439399695	1543.24082732044	1192.74632506717	139	2089.21650209611	1086.66544134571	148.536233685402	1563.95364257095	484.3191427134	134.73973461998	727.648774075626	1148.13728834371	168	1545.85150187916	645.40496996937	148.001327222897	904.600381794378	965.396571139481	182.760267398766	1232.36407041963	1162.29213525493	183.102409434054	1910.47490133166	1281.71282488117	147.102409434054	1617.28864298266	957.149395014008	172	1897.03802466831	1230.51055930176	135.935776943594	2229.11217415696	799.811211978528	209.02562104592	1555.64492302927	1080.43588335187	140.004650252251	1757.40069760247
533.800586926009	142.011749802608	889.070772214391	818.611114054952	225.333710454859	1070.35035929395	585.518835123881	149.816514114655	863.439181049774	1220.34362450078	159.858194337653	1543.4178451003	1192.06579869369	139	2087.80192002889	1085.92601571044	148.538775704061	1562.79385912613	484.245430173636	134.741214797998	727.465521789437	1146.85772689131	168	1543.04713516648	645.274854492169	148.001327222897	904.69741020706	964.782425293021	182.712101263465	1231.55073486333	1161.91624344556	183.083730897085	1910.04972852029	1281.00859180791	147.083730897085	1616.43728420613	957.034229824404	172	1897.27016380589	1230.41478746298	135.947791303837	2229.19726209125	799.826247875638	208.995964680048	1556.22574251713	1080.72786425097	140.011749802608	1758.54889951628
533.755142530288	142.023779221956	888.914085040826	818.949640065464	225.444005257139	1070.84809462861	585.415552024223	149.824945695083	863.080456921993	1220.20401027665	159.862323399243	1543.58587416249	1191.29954535563	139	2086.24423999155	1085.1104428412	148.543179575217	1561.5578844208	484.117213552522	134.750706936288	727.205768849926	1145.49759601573	168	1540.13885779893	645.149873346169	148.005977475148	904.704127718461	964.140095443636	182.661095118515	1230.56943781041	1161.55443747927	183.067134401264	1909.45053521477	1280.31084642983	147.067134401264	1615.44324354734	956.869259694658	172.001327222897	1897.25078240208	1230.25300267672	135.946199523305	2229.07670861876	799.784942190013	208.953433463426	1556.56060858131	1080.93399840833	140.025106444853	1759.423050334
533.663126860391	142.04072345119	888.753367833733	819.192941690063	225.554667519964	1071.31263702609	585.304840661904	149.840816831137	862.779077903658	1220.00343112996	159.869790479719	1543.82390262555	1190.57804724823	139	2084.8085697558	1084.36289393499	148.549605445275	1560.46602077362	483.970852628132	134.764040860857	726.939802032416	1144.26836313903	168	1537.51650076067	645.069852063895	148.016400054859	904.697976049179	963.584735217898	182.61311824891	1229.61552229884	1161.27214348346	183.057123506049	1908.84579582315	1279.73732808278	147.057123506049	1614.52109218218	956.724975468655	172.004650252251	1897.13369661612	1230.12388136371	135.934192821633	2228.97810221095	799.731593765299	208.911203503831	1556.74612822641	1081.09540285124	140.046700926337	1760.09806446084
533.548207464454	142.061156926116	888.652245903776	819.365063513087	225.660312069993	1071.79699339984	585.207394551948	149.862323399243	862.598473944192	1219.77655143543	159.881452368949	1544.20557227051	1190.0316512093	139	2083.75788547149	1083.83021942717	148.560028024986	1559.74332097295	483.850261235966	134.777387251171	726.743449934373	1143.38269546227	168.001327222897	1535.56909337344	645.071355279733	148.035529024564	904.759501561029	963.229676035645	182.576969554446	1228.90445716305	1161.12935266955	183.05930824652	1908.4118552409	1279.39542699834	147.05930824652	1613.8972623068	956.668795123323	172.013077025505	1897.10770323101	1230.12321563369	135.916269102915	2229.16327914465	799.708941727168	208.885923335691	1556.90876556206	1081.24973572878	140.077556980975	1760.68184528512
533.436909793067	142.082403674188	888.66070801795	819.494802948154	225.756858134722	1072.34145154021	585.140143499047	149.887167986235	862.579035640907	1219.55643820701	159.897590565946	1544.77605718316	1189.76697981123	139.001327222897	2083.28838803185	1083.63169704697	148.577381376884	1559.56067773721	483.797341497774	134.788343577339	726.682040596732	1143.01519393165	168.005977475148	1534.59448604096	645.17951337915	148.064502673146	904.957934255272	963.156301341788	182.560828228962	1228.61593092023	1161.16390018321	183.077579698651	1908.28999507854	1279.35472778382	147.077579698651	1613.74765775289	956.754194622531	172.028429474207	1897.35173135894	1230.32173053128	135.898917788843	2229.86427233154	799.74933818154	208.891029582901	1557.17088653234	1081.42152897435	140.117932698753	1761.28007506042
533.352852335039	142.09975498826	888.811391650652	819.612147587241	225.840016627161	1072.96500818518	585.114622579873	149.911618850664	862.7378662785	1219.37146523077	159.917596325812	1545.54795952764	1189.84550948107	139.004650252251	2083.49271133461	1083.83559908865	148.603278377207	1559.99540119529	483.845947547843	134.796516220877	726.797002806717	1143.27057449193	168.017727277756	1534.7395241142	645.403272282948	148.101880377306	905.329470675819	963.397558238278	182.570014627641	1228.84665196119	1161.38152994036	183.111180881807	1908.54399115463	1279.63000081439	147.111180881807	1614.14869233322	957.008446156181	172.052473253798	1897.98556848518	1230.75187059427	135.8861026212	2231.21112383565	799.866454160322	208.934273090121	1557.61303246249	1081.61447813371	140.165584884303	1761.95527286304
533.313453802881	142.10924712655	889.112644724666	819.738238480971	225.910413599677	1073.65820855974	585.13611911597	149.932865598736	863.065869329276	1219.23790607269	159.938843073884	1546.4963563519	1190.26854555571	139.011749802608	2084.34739686268	1084.44071167817	148.638114062709	1561.01837798795	484.0115225176	134.80343708915	727.098078025161	1144.16048772047	168.041506499712	1535.98170234228	645.733256209288	148.143560600305	905.869469115687	963.931084539218	182.605403766253	1229.58919837252	1161.75345659887	183.15663762581	1909.15190884399	1280.18188884894	147.15663762581	1615.06031658477	957.424311993618	172.084936148072	1899.04333365419	1231.39449054554	135.881540282327	2233.195406173	800.053624053634	209.016226331572	1558.25402691157	1081.80737151039	140.215777756107	1762.70604905764
533.327744341368	142.106709915065	889.551266193286	819.886056761919	225.971305968158	1074.38721027666	585.203834167468	149.947526746202	863.534866138428	1219.16185486841	159.95927654881	1547.56395814045	1190.98443089099	139.023779221956	2085.72600096964	1085.38257511217	148.679902878934	1562.50475632244	484.289121986664	134.811863862404	727.559599747249	1145.61005941462	168.082229950902	1538.14701436422	646.144439024311	148.183485885345	906.537097002412	964.696589492537	182.663220507562	1230.74997476598	1162.22892339661	183.208592330198	1910.02263236015	1280.93683209518	147.207265107301	1616.35174111682	957.965766966304	172.123127125378	1900.46296569548	1232.19061465824	135.8861026212	2235.66472140747	800.286058269309	209.128560426151	1559.04398464874	1081.96354844314	140.262020317978	1763.46185985844
533.395316052094	142.090118156844	890.097740566171	820.056921616718	226.028694031842	1075.10200780673	585.310454373074	149.952441556088	864.104336684746	1219.13598392712	159.977548000941	1548.67613752929	1191.89751482428	139.04072345119	2087.4377033997	1086.54579517106	148.726141966036	1564.26786941061	484.65355707972	134.823618472186	728.127488271125	1147.47028352382	168.142059654121	1540.96233690769	646.601077236329	148.214979589957	907.262802790047	965.608215574775	182.736228218833	1232.17573236076	1162.7465731362	183.260353293398	1911.0227420981	1281.80407445702	147.255703041147	1617.83954068987	958.575479727922	172.162239137273	1902.10246525353	1233.0540305718	135.898917788843	2238.35585504234	800.527881647239	209.257719836966	1559.8755878345	1082.03926824941	140.297383264146	1764.101139524
533.507383085728	142.060358759967	890.70826951451	820.242104558943	226.088259177426	1075.74593905819	585.444282104532	149.947526746202	864.721942465767	1219.14583534161	159.992900449642	1549.74495540311	1192.88305796002	139.061156926116	2089.26000680132	1087.78158736732	148.773682429873	1566.09389499256	485.063280266704	134.840816831137	728.72660772121	1149.53996309063	168.221140298956	1544.10320098742	647.060175922025	148.232357096474	907.963413905634	966.573638486534	182.815715948505	1233.69454744289	1163.24349925337	183.305263825198	1912.01039228189	1282.69489787698	147.29351402259	1619.33255149223	959.17979249937	172.196301052989	1903.76351452025	1233.88061579604	135.917596325812	2240.93920628004	800.733583229174	209.387513838844	1560.60377856476	1081.98739461793	140.316061801114	1764.47384950717
533.647867303812	142.021246748072	891.331633608459	820.424349672494	226.155333120589	1076.26715557594	585.587231834395	149.934192821633	865.331807331745	1219.16313810647	160.007099550357	1550.68427501944	1193.81422831641	139.082403674188	2090.98602364764	1088.93768225813	148.820272725157	1567.7835071583	485.467510607361	134.860996176347	729.276974429849	1151.60160683914	168.313795736858	1547.25328909286	647.480043083335	148.232357096474	908.55878002118	967.508474368787	182.893469370443	1235.1473406733	1163.6684226061	183.338539992618	1912.86306615751	1283.53549344432	147.314760770662	1620.66915189302	959.70703592381	172.21954192883	1905.23274901149	1234.57060367035	135.938843073884	2243.08854267445	800.859635391951	209.501323304266	1561.07680095861	1081.77244127631	140.314760770662	1764.43958276447
533.796767557719	141.978753251928	891.907182033038	820.580808191438	226.23139206267	1076.61951646568	585.721842304862	149.916269102915	865.872182065221	1219.15592738282	160.022451999059	1551.40829734231	1194.5787896417	139.101082211157	2092.44081854571	1089.87959700068	148.863388764279	1569.17407308165	485.817732551953	134.882517733985	729.703351244559	1153.45052984569	168.41101344406	1550.13581628137	647.821012816051	148.214979589957	908.981674242246	968.33890804737	182.963143752539	1236.40494899122	1163.97937325	183.356785252304	1913.49359199842	1284.26613564238	147.316061801114	1621.73556975748	960.092318945636	172.227794757601	1906.31315460434	1235.03640509786	135.95927654881	2244.53021007828	800.867878572216	209.584919811588	1561.16110778488	1081.36873967811	140.29351402259	1763.8937056803
533.931465718031	141.939641240033	892.37505348107	820.686527190573	226.315908708051	1076.77079185277	585.829585340725	149.898917788843	866.28553783867	1219.08851974687	160.04072345119	1551.84618920482	1195.09252139764	139.113897378801	2093.49713830381	1090.50748595545	148.901196270953	1570.1557531246	486.071758598964	134.901196270953	729.944263517048	1154.92008889133	168.502106352788	1552.53944608857	648.048732344166	148.183485885345	909.180812196835	969.004757943781	183.020977649301	1237.36917588638	1164.14332808617	183.358540190262	1913.84325566782	1284.83920263279	147.297383264146	1622.45879746707	960.283608248101	172.21954192883	1906.84421103493	1235.206349577	135.976220778044	2245.06181237257	800.729228182139	209.629495348879	1560.75692917126	1080.7612243369	140.255703041147	1762.77366700514
534.028309964857	141.909881843156	892.681781425478	820.714844821121	226.404609028846	1076.70511183837	585.895171944264	149.886102621199	866.526624683108	1218.92376075087	160.061156926116	1551.94936683097	1195.30942312787	139.118459717673	2094.09588755456	1090.76950713131	148.932865598736	1570.68762663155	486.201675261765	134.913736629031	729.965104076812	1155.90404113618	168.576441286957	1554.33840429108	648.13185161215	148.143560600305	909.12657899432	969.454520651499	183.06600361933	1237.97674545169	1164.12779728565	183.344423992166	1913.88418486605	1285.20979678229	147.262020317978	1622.80547248558	960.248794155386	172.196301052989	1906.72251706004	1235.03643739445	135.988250197392	2244.57531464961	800.430291933594	209.630822571776	1559.81429272863	1079.95073864534	140.207265107301	1761.07048501282
534.067002474061	141.893290084935	892.786992499053	820.642103093795	226.493510593848	1076.42380891217	585.907295810672	149.881540282327	866.567456132444	1218.62906615686	160.082403674188	1551.6987287109	1195.22072035464	139.113897378801	2094.23081710784	1090.66128139977	148.957949325913	1570.78770448864	486.1947568968	134.91855309762	729.756677105026	1156.36132643332	168.627303101459	1555.49184008255	648.046519575592	148.101880377306	908.80869074669	969.653519907778	183.101082211157	1238.19852979368	1163.9072280319	183.31818719016	1913.61499263867	1285.34426960672	147.217104979004	1622.77396114928	959.980809603001	172.162239137273	1905.91823712716	1234.51612295797	135.995349747749	2243.06388108958	799.977048529939	209.590897286735	1558.3441284692	1078.9573302529	140.155310402913	1758.83125865892
534.028915558163	141.89075287345	892.669369555121	820.449577708345	226.577908395805	1075.94211154967	585.855986642292	149.886102621199	866.3999824879	1218.17745254598	160.101082211157	1551.10461485304	1194.84936293815	139.101082211157	2093.9514198922	1090.22164188185	148.976220778044	1570.53114234285	486.051973782796	134.915063851928	729.335280231995	1156.31246646999	168.653650534519	1556.04060228877	647.777118042059	148.065829896043	908.234742918438	969.585937562525	183.130297433659	1238.04223413901	1163.4632135404	183.285459738251	1913.0568287531	1285.22062173097	147.17156235945	1622.39232591839	959.498237642085	172.124454348275	1904.47990667498	1233.6709601617	135.998672777103	2240.62281755072	799.396252972767	209.519050582022	1556.42143419755	1077.82041420026	140.106530629557	1756.15793872993
533.905927560149	141.90024501174	892.336088649174	820.129930945157	226.654448700669	1075.29677458925	585.739377642042	149.898917788843	866.044062365656	1217.5618580768	160.1138973788	1550.21713791487	1194.24599675766	139.082403674188	2093.35211767205	1089.52583782899	148.988250197392	1570.03854680414	485.787667741799	134.905846523204	728.739297817283	1155.83500835821	168.660312069993	1556.09945118308	647.322504839064	148.040179276815	907.43082483398	969.264146558345	183.158638994488	1237.55767202462	1162.79461950952	183.254119694181	1912.2610459198	1284.84269811672	147.134332753611	1621.72020687789	958.844843065258	172.09091362322	1902.5390205151	1232.56356818759	136	2237.44979671222	798.733358529506	209.430347561452	1554.18452242856	1076.60057931714	140.065829896043	1753.2082950321
533.701736401333	141.917596325812	891.82086209372	819.695082731945	226.722796219006	1074.53953695046	585.563532781656	149.917596325812	865.540865229549	1216.80040824846	160.118459717673	1549.11898703504	1193.4888345841	139.061156926116	2092.5667783823	1088.68157683325	148.995349747749	1569.46689259391	485.427263075931	134.894267536593	728.024462033714	1155.05848068278	168.65654789727	1555.84730268667	646.70056159041	148.028149857467	906.44338566178	968.736791798371	183.191477077452	1236.83903723341	1161.93201033087	183.232960859487	1911.31275684842	1284.25251563991	147.113086005539	1620.85347638098	958.088314053749	172.068873308657	1900.30912809189	1231.29498959741	136	2233.84386861953	798.053852890458	209.343272817222	1551.83491164966	1075.37987343143	140.035529024564	1750.19716775684
533.436507021882	141.938843073884	891.188457777902	819.180280624151	226.784854331646	1073.74096637473	585.346388865037	149.938843073884	864.95514390962	1215.94741137401	160.1138973788	1547.92476242159	1192.66863853074	139.04072345119	2091.75313620778	1087.81409078343	148.998672777103	1568.99211013636	485.003250371546	134.884775398303	727.255492842001	1154.14313515282	168.653395753487	1555.50597317143	645.952175749884	148.029756697104	905.340146446077	968.090866846637	183.232719285566	1236.02307483819	1160.94238728059	183.230013088396	1910.33592612573	1283.53639205651	147.11253082238	1619.92815749099	957.314548089008	172.065285721668	1898.07127366243	1229.99526774473	136	2230.19084106571	797.433818617266	209.279046853526	1549.62472582396	1074.25316322567	140.016400054859	1747.3879452844
533.143369721564	141.95927654881	890.530946983926	818.639882356675	226.84537917001	1072.99018811784	585.114504666209	149.95927654881	864.36991309764	1215.08445257716	160.101082211157	1546.77625472768	1191.8889294184	139.023779221956	2091.08990945058	1087.05681285236	149	1568.79704532905	484.554400321078	134.881540282327	726.502665391628	1153.26535481725	168.660583217222	1555.3233101615	645.140592904412	148.042050674087	904.211233255022	967.443703037597	183.284415003439	1235.27807766703	1159.92851646601	183.250896996059	1909.49409682592	1282.82077627181	147.13163707441	1619.11560493104	956.614367602361	172.083557173799	1896.12805115928	1228.8101111812	136	2226.90850279648	796.95134182825	209.254046302126	1547.81428874671	1073.32003500281	140.005977475148	1745.05564779048
532.866537200884	141.976220778044	889.947819580222	818.142344200834	226.910667591451	1072.37905895499	584.903920467265	149.976220778044	863.869089036893	1214.31154248946	160.082403674188	1545.81375931105	1191.24378779312	139.011749802608	2090.74410131595	1086.52651695781	149	1569.03531456749	484.120672220208	134.886102621199	725.83559762594	1152.58377414639	168.683912006441	1555.52097332842	644.341633233656	148.062484149013	903.158976714523	966.920064138283	183.347306237289	1234.77561085561	1159.01161433448	183.300024502828	1908.95916802333	1282.24543595446	147.168387428418	1618.5925938757	956.072140199315	172.124257907312	1894.76915667564	1227.87743695378	136	2224.40058816911	796.671919786054	209.278090081718	1546.64147277361	1072.6651229789	140.001327222897	1743.45489694024
532.649789673372	141.988250197392	889.529454437952	817.755909648855	226.986749251208	1071.98656258277	584.750187824203	149.988250197392	863.52462095185	1213.72669629741	160.061156926116	1545.15025417677	1190.80393345906	139.004650252251	2090.83210957759	1086.30139833591	149	1569.78862876403	483.737370549159	134.897590565946	725.309182778036	1152.20912608619	168.72253626103	1556.23763292414	643.634117263953	148.087053926439	902.282934619177	966.623991939158	183.420336666237	1234.65251167138	1158.30584208997	183.376896718054	1908.88264293672	1281.93148338452	147.216565611802	1618.50420527657	955.747025667456	172.186394322913	1894.19661919112	1227.30197333216	136	2222.95648504952	796.635520876588	209.35223319899	1546.25715993637	1072.34349691774	140.001327222897	1742.75211647321
532.526529310159	141.995349747749	889.329627352092	817.532674433322	227.077579698651	1071.85395466705	584.683245559979	149.995349747749	863.375650184305	1213.40237162981	160.042050674087	1544.83647255721	1190.60472143371	139.001327222897	2091.3879502155	1086.40148016756	149	1571.0304894496	483.432887734656	134.912946073561	724.954624520697	1152.18174735999	168.771140411214	1557.48024844437	643.07848714392	148.112832013765	901.655310784963	966.603714159552	183.499278183707	1234.9647094964	1157.88562291042	183.477626388625	1909.33908648874	1281.9392801048	147.268780066652	1618.91074480698	955.660033113833	172.265715836247	1894.4815627415	1227.12557821549	136	2222.6895769792	796.841500475045	209.467727165497	1546.68699421724	1072.36153932287	140.004650252251	1742.98212325236
532.511765349834	141.998672777103	889.346831188235	817.494315018743	227.182412654223	1071.96669651649	584.717366907325	149.998672777103	863.415571352138	1213.36068812132	160.028429474207	1544.83769210925	1190.63913528393	139	2092.34583374615	1086.78236876463	149	1572.61189919892	483.222754837912	134.925766048379	724.771578802478	1152.46291427229	168.820910375131	1559.10341039355	642.707193837214	148.137676600757	901.297026224416	966.837937418783	183.577817353941	1235.65753063974	1157.76452188843	183.593431660504	1910.29129734683	1282.24905309396	147.317293244546	1619.75143310165	955.782583919527	172.358366466975	1895.53340507117	1227.3089033444	136	2223.48239805496	797.245651322209	209.608986753584	1547.80692694499	1072.66490711243	140.011749802608	1744.01497313258
532.595676436121	142	889.515617667512	817.622700284617	227.297116065259	1072.2445411883	584.848222526311	150	863.58871712607	1213.56548147268	160.023499605216	1545.025227038	1190.86095873259	139	2093.53880259991	1087.3386385801	149	1574.27073453177	483.107672959882	134.930847074603	724.721653799579	1152.94375256773	168.86259059813	1560.82655550979	642.51174349101	148.159183168863	901.16463574668	967.232522276291	183.647235044488	1236.55745722645	1157.88714889059	183.713850688827	1911.57155916213	1282.75716320049	147.355484221852	1620.83417849899	956.039835002736	172.456820424783	1897.09722394159	1227.73375424206	136	2224.98360121717	797.764225643525	209.756858134722	1549.34835302983	1073.14556265897	140.023779221956	1745.55496420118
532.744078036574	142	889.721054684673	817.862543568846	227.4112930608	1072.55642105958	585.048137687783	150	863.803639969035	1213.9197225374	160.028429474207	1545.20425404685	1191.19976255839	139	2094.7343430663	1087.92680144919	149	1575.67805534456	483.075663405634	134.923747524246	724.733683731977	1153.47323329584	168.890123623414	1562.28961899517	642.442775458184	148.175054304917	901.152528941794	967.6418581631	183.697974128494	1237.40547706109	1158.13421638876	183.823616572302	1912.90435197036	1283.29365241798	147.37721872723	1621.86889938309	956.323935945626	172.553252383689	1898.7962223734	1228.22251121221	135.998672777103	2226.65611660915	798.287871008682	209.892669166467	1550.94329368851	1073.65512239611	140.04072345119	1747.18317178276
532.904347989955	142	889.816719545812	818.126162838673	227.511745883977	1072.74066351102	585.269289757714	150	863.945382958126	1214.27864488013	160.042050674087	1545.14454945029	1191.56711498985	139.001327222897	2095.67852194009	1088.38435838125	149	1576.49832248022	483.098816146901	134.90331404932	724.715831130273	1153.87487717592	168.901986826423	1563.12547021357	642.419093353364	148.183485885345	901.105250345206	967.89841181735	183.721642719396	1237.90370133991	1158.34805308923	183.909260100067	1913.95089067577	1283.66119333477	147.379786938334	1622.51892493027	956.510576580847	172.638022453365	1900.19731745355	1228.56838071193	135.994022524852	2227.87468989389	798.700709279947	210.002004206395	1552.18590852872	1074.03206695041	140.061156926116	1748.42801116698
533.011715299327	142.001327222897	889.652364988028	818.311676215548	227.584919811588	1072.63701544662	585.449851984059	150.001327222897	863.897023109489	1214.47326875496	160.061156926116	1544.62298413493	1191.87018669057	139.004650252251	2096.13396032519	1088.55367595009	149	1576.44621825961	483.139320132666	134.872222622371	724.568191196192	1153.97305420886	168.899869048056	1563.01841339295	642.342110369723	148.183485885345	900.851425993253	967.850586222953	183.714024412114	1237.78328722559	1158.36459146101	183.960401531309	1914.37899074415	1283.67507621972	147.363102529134	1622.47681179042	956.483652765924	172.70120924447	1900.88407105417	1228.57916737565	135.983599945141	2228.03549069867	798.900122228432	210.074827828915	1552.70596671822	1074.13237443886	140.082403674188	1748.84862672888
533.007078184616	142.004650252251	889.099989806796	818.326739654941	227.619072769168	1072.11518271078	585.527802701861	150.004650252251	863.555458368053	1214.35004665364	160.082403674188	1543.46404090383	1192.02524676798	139.011749802608	2095.91038273043	1088.30838610001	149	1575.32400438869	483.154597875101	134.83643363983	724.198272915416	1153.61633123347	168.886962838548	1561.74188065311	642.118671692681	148.175054304917	900.228819953845	967.389760571166	183.67407849685	1236.84607918343	1158.04859033265	183.969727453261	1913.9156017623	1283.19879229535	147.329675134907	1621.51138699646	956.153139537328	172.73445788704	1900.52460191994	1228.10516040512	135.964470975436	2226.66378052401	798.812862537201	210.10809362694	1552.22947115424	1073.85261052572	140.101082211157	1748.11227148321
532.846747147937	142.011749802608	888.075754727824	818.111404770517	227.60704334982	1071.09963876624	585.456004021377	150.011749802608	862.84932460369	1213.80965954927	160.101082211157	1541.56958140591	1191.96055519239	139.023779221956	2094.87576423769	1087.56283564868	149	1573.04167842397	483.101329154927	134.803698947011	723.5328473178	1152.68827479025	168.867048120547	1559.16999391633	641.676579669646	148.159183168863	899.116856605258	966.463406924721	183.605992836373	1234.99558567576	1157.31463544956	183.936098814827	1912.39617946693	1282.16212112895	147.284044601976	1619.50544830729	955.469056367773	172.732702949082	1898.92191731108	1227.06591136055	135.935497326854	2223.48680644868	798.406090013554	210.101678136908	1550.6225117886	1073.14715586684	140.1138973788	1746.04881329799
532.514358146238	142.023779221956	886.548108353604	817.652464075934	227.551501058442	1069.57900613246	585.213113019389	150.023779221956	861.746816908616	1212.8269659099	160.1138973788	1538.93108284973	1191.63149569749	139.04072345119	2092.96826924217	1086.29088095653	149	1569.62003744249	482.943772362519	134.78045807117	722.528534637082	1151.1300009424	168.840033782615	1555.28189853273	640.981148580897	148.137676600757	897.453798287202	965.080966666383	183.518506407647	1232.23886296442	1156.14643826225	183.864778038375	1909.77708538831	1280.57165273269	147.23315730045	1616.45690185481	954.428139883523	172.695325244922	1896.03450004545	1225.45896037305	135.898119622694	2218.47000347385	797.689397408094	210.057915872763	1547.90384183662	1072.032805497	140.118459717673	1742.66945721221
532.021608960234	142.04072345119	884.545472698011	816.986591629447	227.462543908156	1067.60918300444	584.809424353337	150.04072345119	860.263569653912	1211.46142873777	160.118459717673	1535.63394336443	1191.0274785645	139.061156926116	2090.2017482937	1084.52918123638	149	1565.18342404253	482.662059959948	134.772205242399	721.177994864458	1148.95062901206	168.805199893195	1550.15854236835	640.038278676539	148.112832013765	895.246379821772	963.306397089831	183.422968394355	1228.67500222091	1154.59435477291	183.766044533401	1906.14173412581	1278.50171841612	147.184616667279	1612.47194596448	953.071502697135	172.627753534196	1891.97609554585	1223.35317324915	135.856439399695	2211.80906707521	796.71093454177	209.980328667164	1544.23433470495	1070.58001062742	140.1138973788	1738.1550936158
531.409278899112	142.061156926116	882.154934137416	816.196059479068	227.358366466975	1065.30720882703	584.286239687112	150.061156926116	858.465405788723	1209.84819289857	160.1138973788	1531.85066115319	1190.17718600558	139.082403674188	2086.67255563661	1082.37840848687	149	1559.94872757422	482.254472935386	134.78045807117	719.513221783015	1146.2379778097	168.760181164076	1543.98807400259	638.89324687493	148.087053926439	892.566825494699	961.243915033074	183.331523014614	1224.47333970374	1152.76047249554	183.654798471908	1901.67536025274	1276.07881440244	147.145504655385	1607.73818232533	951.477984022853	172.540100889131	1886.99080395876	1220.87777093225	135.816514114655	2203.88618683434	795.548868348695	209.873557352216	1539.88556462505	1068.89777856317	140.102409434054	1732.81514554633
530.736048044796	142.082403674188	879.512928764524	815.390930403659	227.261319575771	1062.834642473	583.707208785978	150.082403674188	856.46307094224	1208.17009395373	160.101082211157	1527.82326515931	1189.14605591509	139.101082211157	2082.56127802558	1079.99357492983	149	1554.20974383911	481.740591155025	134.803698947011	717.605073477403	1143.15668354322	168.703555577214	1537.06611124475	637.621528922907	148.062484149013	889.546228096637	959.0260006547	183.257996546417	1219.86526741372	1150.78260400839	183.547995905864	1896.65088237817	1273.46535565959	147.121792395533	1602.51777609149	949.757432560788	172.446747616311	1881.41876790765	1218.20883414048	135.785020410043	2195.21602064836	794.301133188724	209.744113725002	1535.19709682137	1067.12169734505	140.088381149336	1727.03518746716
530.06775518179	142.09975498826	876.787037226663	814.685978729955	227.192795900411	1060.37368372287	583.142792106734	150.101082211157	854.397942173148	1206.61793529785	160.082403674188	1523.83028381048	1188.03384066378	139.113897378801	2078.12609687133	1077.56800728777	149	1548.3161629262	481.158812717775	134.83643363983	715.55710446979	1139.93516289483	168.637076756374	1529.78674161421	636.315332055784	148.04072345119	886.354197311429	956.797953059379	183.212539802415	1215.11818537488	1148.80991301421	183.462641332098	1891.38836346271	1270.83702741644	147.116975926944	1597.1154952579	948.035441358569	172.363729009824	1875.65574168535	1215.54395712612	135.767642903526	2186.38164299703	793.071491839833	209.600723940695	1530.53242157071	1065.39101474237	140.077556980975	1721.22423234985
529.465259053215	142.10924712655	874.1596683371	814.182659215252	227.16964125926	1058.10661552375	582.657935819432	150.1138973788	852.423699717105	1205.36016146634	160.062484149013	1520.15642550918	1186.95917297239	139.118459717673	2073.68028874014	1075.31058217046	149	1542.64499301007	480.561183562423	134.872222622371	713.493738651582	1136.83909285491	168.565207333984	1522.61480614988	635.070341969321	148.025106444853	883.179802476728	954.703152363864	183.201837605964	1210.5188528585	1146.98287877169	183.411635187149	1886.22568634191	1268.36512822088	147.13163707441	1591.85818439885	946.43952743335	172.306693279211	1870.10964608341	1213.07967365689	135.767642903526	2177.97364373076	791.957848756054	209.457175758244	1526.24517918818	1063.83182850311	140.077579698651	1715.77015608015
528.9771442233	142.105382692168	871.805394101548	813.950162375553	227.200100598455	1056.19097158463	582.301297344167	150.118459717673	850.686833071014	1204.51551200616	160.045373703441	1517.05707436591	1186.04421504896	139.113897378801	2069.5643325414	1073.41988255678	149.001327222897	1537.57153310035	480.003713735558	134.90331404932	711.546671503252	1134.14106009865	168.495875123079	1516.05511269361	633.972758569433	148.017727277756	880.209165939796	952.876385805354	183.227900822625	1206.35226490636	1145.4212095647	183.403501201801	1881.48734717231	1266.20457982441	147.162615100957	1587.07239926126	945.085050832816	172.286773754036	1865.15736012499	1210.98997961346	135.785020410043	2170.52761941903	791.043538533669	209.330418849906	1522.63958792178	1062.54388978173	140.09425937025	1710.99747212763
528.633887840947	142.085467904594	869.873410486344	814.01906029782	227.286351551571	1054.74757716379	582.096848123308	150.1138973788	849.308793278676	1204.13669722951	160.036856247461	1514.73201470605	1185.40400532428	139.101082211157	2066.11675631133	1072.06493829531	149.004650252251	1533.44211583017	479.540506618495	134.923747524246	709.844839367735	1132.08773049777	168.439033133655	1510.60317509662	633.088600224509	148.021050307109	877.610812521133	951.431999665118	183.288093366253	1202.88617362139	1144.21364829438	183.438836692692	1877.46471323548	1264.48044440975	147.205863415351	1583.0618897691	944.067579369222	172.308020502108	1861.10448667483	1209.41250489102	135.816514114655	2164.47151292608	790.394429976584	209.238805525512	1519.94786878981	1061.59387472858	140.130030234773	1707.13988562328
528.448127086204	142.048608957359	868.475771091759	814.381981339558	227.42357771959	1053.85098409799	582.04673351457	150.101082211157	848.374890625381	1204.21706859335	160.041506499712	1513.30962122409	1185.12123408023	139.083730897085	2063.62056404134	1071.36048459677	149.013077025505	1530.52962993544	479.21345187085	134.930847074603	708.495696710008	1130.86019832036	168.404452461014	1506.67227184797	632.457091692523	148.036856247461	875.514421715338	950.452124960127	183.376093744731	1200.33672886707	1143.40916116141	183.512297895614	1874.38201420436	1263.2718055363	147.257813312566	1580.06674508484	943.449883140592	172.368379262075	1858.16844062668	1208.43002114316	135.856439399695	2160.10059096928	790.05138789961	209.202205307652	1518.32338299228	1061.00811529266	140.183739877119	1704.33774038914
528.417834080812	141.997467526116	867.679758887113	815.000822785002	227.605334859422	1053.53090913601	582.133711713657	150.082403674188	847.928293542932	1204.70227430653	160.063100981196	1512.83942819838	1185.24573513996	139.065807178367	2062.28021874548	1071.35951219838	149.029756697104	1529.01124445206	479.050351741233	134.925766048379	707.580196673509	1130.55703483032	168.399343909939	1504.54400487613	632.089085960396	148.064502673146	874.004492421854	949.976060779627	183.48458131543	1198.84340306196	1143.01964092945	183.612765777896	1872.3820365411	1262.60778758258	147.314587047375	1578.23806480924	943.254536392873	172.458497418919	1856.43794191375	1208.06076570325	135.898119622694	2157.52505465498	790.028710468923	209.235979394259	1517.81147898114	1060.77249843377	140.249315781388	1702.61289174672
528.532798157053	141.938029800738	867.497937344377	815.823805927076	227.824601861221	1053.77039154929	582.334286639356	150.061156926116	847.964627226608	1205.51472472567	160.103990648725	1513.28764157924	1185.77523773882	139.052473253798	2062.17462650834	1072.04405327792	149.058450728946	1528.93490560005	479.059468690834	134.912946073561	707.140937592517	1131.17329581262	168.426480219781	1504.30221873616	631.970545974236	148.101880377306	873.110998562062	949.99394898766	183.604603562277	1198.44076293544	1143.02026330305	183.728254937229	1871.50493352973	1262.46125205081	147.375743973492	1577.60402935279	943.460810180243	172.565207333984	1855.87807459156	1208.25693892008	135.935497326854	2156.68000712091	790.312651868323	209.348026055636	1518.36005996803	1060.83618656919	140.316859967263	1701.88692534314
528.774431944307	141.878484313917	867.889503059568	816.794297818221	228.076178006701	1054.51062094929	582.619705049292	150.04072345119	848.437103535891	1206.56852752213	160.16463362509	1514.54235930442	1186.65838572042	139.047558443912	2063.24172800825	1073.32731060412	149.102663425828	1530.20290885388	479.231361133888	134.897590565946	707.176742344001	1132.60243242727	168.482276640875	1505.80578485091	632.068624106302	148.143560600305	872.808925490998	950.442984812667	183.728656459845	1199.03901833575	1143.35523758138	183.845994102308	1871.67934559759	1262.75319981727	147.440770141163	1578.05494781763	944.004223240344	172.674454460534	1856.32946502504	1208.90677449626	135.964470975436	2157.32314034848	790.860036159349	209.535807614819	1519.81787260923	1061.11677604842	140.375917696778	1701.989433048
529.119975973856	141.827478168967	868.761315970022	817.859089675368	228.356629459467	1055.65775900256	582.96448952299	150.023779221956	849.260037369129	1207.78154567973	160.244469088175	1516.42741376696	1187.79716994482	139.053800476695	2065.28714778841	1075.06240998177	149.16463362509	1532.58412972231	479.538620198063	134.8861026212	707.642272789293	1134.64594795255	168.560906852973	1508.7029466445	632.336839605521	148.183485885345	873.017206672302	951.213559663287	183.848898640326	1200.41826498066	1143.94470693883	183.956744074926	1872.71367397171	1263.364418106	147.509031424811	1579.34217691	944.786519924921	172.775536671691	1857.53332301169	1209.85364747055	135.983599945141	2159.07139295656	791.604005929012	209.784846686756	1521.95679941841	1061.51666263806	140.417170204716	1702.68529303742
529.54180515271	141.792207873778	869.974124230156	818.971134944645	228.663237663016	1057.08819533224	583.342764578266	150.011749802608	850.315432737182	1209.07343752442	160.339687930007	1518.71278993267	1189.06158941777	139.071784653514	2068.01722982086	1077.06379896423	149.244469088175	1535.74776673577	479.939469554574	134.881540282327	708.454196633637	1137.04068908088	168.65358848332	1512.48390729087	632.723345926778	148.214979589957	873.611898341703	952.168493829927	183.958493500288	1202.26410653078	1144.69694605152	184.054381284819	1874.33298900193	1264.15831838636	147.57835326632	1581.12312252636	945.691528025366	172.861263375233	1859.17050821191	1210.92079971806	135.994022524852	2161.45294831435	792.464955674206	210.07100364282	1524.49966874575	1061.93569988294	140.434609432165	1703.70786380095
530.005880524779	141.77685549465	871.363763019564	820.086848211272	228.991306027859	1058.66553489929	583.729629681686	150.004650252251	851.469758792938	1210.36747261233	160.445332480036	1521.148438376	1190.30402792	139.100130951944	2071.072305027	1079.12566959228	149.339687930007	1539.30264599004	480.38223149884	134.886102621199	709.496147321511	1139.49114097946	168.752011441509	1516.55899303491	633.172353669968	148.232357096474	874.435228147263	953.160479707826	184.051144131017	1204.20977679924	1145.51523620577	184.136893552235	1876.20724139674	1264.99761641453	147.643382958387	1583.01105941685	946.604534723795	172.930847074603	1860.90962592801	1211.94182486896	135.998672777103	2163.97666279709	793.362979353936	210.366280469454	1527.15988166138	1062.29380802452	140.427592784427	1704.80047493199
530.475319389404	141.781785294067	872.767599195656	821.167228129372	229.335037677756	1060.26119005799	584.099487502535	150.001327222897	852.595690445829	1211.58840513693	160.554667519964	1523.50464256723	1191.38695945784	139.137938458618	2074.09711928124	1081.05474994917	149.445332480036	1542.86770591486	480.812043192754	134.898917788843	710.637339414124	1141.71488591678	168.851789147445	1520.36371367334	633.629495348879	148.232357096474	875.325483921946	954.05809036534	184.121979187989	1205.91692871747	1146.30773674465	184.20394004012	1878.02392945225	1265.76615755742	147.697450633968	1584.6648606877	947.432705831938	172.988250197392	1862.46329483093	1212.7898297753	136	2166.2121482251	794.231419448354	210.643749411507	1529.68731140881	1062.54267395581	140.399696918734	1705.76108567553
530.913820539055	141.803698947011	874.050136514211	822.175197473265	229.684091291949	1061.77434212449	584.425908328185	150	853.586863208794	1212.66664657019	160.660312069993	1525.60585057848	1192.19826886424	139.184377527094	2076.77563805117	1082.69318502879	149.554667519964	1546.11691916727	481.176626037849	134.917596325812	711.745023888701	1143.47884539494	168.950872493232	1523.43966985813	634.047370382087	148.216306812854	876.137400545329	954.767663927562	184.169605886517	1207.13939432076	1147.00115495442	184.257457979105	1879.54173010426	1266.38817393299	147.733485997604	1585.85290615447	948.119743868508	173.04072345119	1863.63413089387	1213.39695129104	136	2167.86258789696	795.026569980467	210.883983594264	1531.90165560617	1062.67725967473	140.35891064135	1706.47749360498
531.287381638331	141.837760862727	875.124432912941	823.079843532708	230.027634007831	1063.14649808228	584.68505642022	150	854.377120567769	1213.54471642578	160.755530911825	1527.35912681079	1192.6672002721	139.236740149838	2078.88488931602	1083.93528600743	149.660312069993	1548.83175808527	481.434415166924	134.938843073884	712.705939196457	1144.62959981046	169.049127506768	1525.50791689775	634.385479866769	148.188136137596	876.768175962336	955.239777501052	184.195850620252	1207.76862946243	1147.5417347181	184.30096815136	1880.63407618407	1266.82588542995	147.747353578579	1586.49568354174	948.644213410056	173.09668595068	1864.33997008295	1213.75524136557	136	2168.81186941948	795.72837990909	211.07710874476	1533.71693836277	1062.72885086298	140.315122959755	1706.94619237018
531.574288135847	141.876872874622	875.963512646446	823.857341620643	230.355200005454	1064.36850681927	584.857543861041	150.001327222897	854.944284422507	1214.18718338599	160.836693597807	1528.76315575235	1192.77507210393	139.294314226566	2080.31351234547	1084.743122701	149.755530911825	1550.9184419521	481.560729253204	134.95927654881	713.440861974554	1145.11379803781	169.148210852555	1526.48921609355	634.619583619258	148.155310402913	877.171027344134	955.477977890445	184.206840867009	1207.84493964771	1147.90673659234	184.338889763857	1881.30305042448	1267.08697415459	147.739463472751	1586.66695987528	949.016599761811	173.163306402193	1864.62048066236	1213.90736789083	136	2169.14091537748	796.335665375977	211.22425423228	1535.14493419775	1062.75253587509	140.279220576813	1707.27023558411
531.765918118794	141.915063851928	876.5970513166	824.498415920188	230.658844961145	1065.47678963293	584.935256806424	150.005977475148	855.310902005426	1214.59103117817	160.901986826423	1529.8960777583	1192.5460689127	139.355048244795	2081.06637360501	1085.13648990452	149.83536637491	1552.40570644356	481.549464007508	134.976220778044	713.916766858575	1144.96992617544	169.249315781388	1526.49382634253	634.742172132482	148.125659599262	877.360581521173	955.525029950444	184.211910552378	1207.52952303851	1148.1012303689	184.375743973491	1881.6620858132	1267.20844669263	147.715177911724	1586.55897688551	949.269276451331	173.244469088175	1864.61297735332	1213.93117163588	136	2169.09202615359	796.861306419885	211.333433745409	1536.27634215412	1062.81186701086	140.260869143033	1707.62615864096
531.868775617491	141.947526746202	877.093028019479	825.005825737558	230.936448586067	1066.53214142162	584.921627742263	150.016400054859	855.531958922018	1214.78267442142	160.953299073663	1530.8853906308	1192.04047115579	139.416990919207	2081.24747719494	1085.18417763438	149.897336574172	1553.41762072695	481.412582873127	134.988250197392	714.148924005106	1144.31583934942	169.352388991828	1525.77637813068	634.766493717569	148.105226124336	877.405086426878	955.453820994976	184.222708390351	1207.05927769909	1148.15880595661	184.416467424681	1881.89995644036	1267.25156147339	147.684889458099	1586.42767227117	949.441165726402	173.339687930007	1864.5052264619	1213.91562201197	136	2168.99894648061	797.321664936254	211.417177060348	1537.24167245608	1062.9599920535	140.266607477996	1708.20763906001
531.901914168615	141.971570525793	877.535694377625	825.394798281772	231.190323577841	1067.59974371074	584.831639168008	150.035529024564	855.677866493092	1214.81408561354	160.994022524852	1531.86641477449	1191.34657387831	139.478581122606	2081.0343911679	1084.99167872658	149.941549271054	1554.13713080397	481.179419140993	134.995349747749	714.194933340662	1143.32391963885	169.456820424783	1524.67360668311	634.72152733618	148.09668595068	877.402884220654	955.347472381328	184.249569773162	1206.68056713996	1148.13221687118	184.46454936312	1882.21968106687	1267.28298871473	147.660583217222	1586.51876864903	949.571396301688	173.445332480036	1864.48816565506	1213.94162616404	136.001327222897	2169.19853888326	797.730599533295	211.488779283851	1538.1740671542	1063.22790986498	140.298702842152	1709.17176739309
531.893126454836	141.988250197392	878.004052979559	825.691960491345	231.42760520228	1068.72806169046	584.692162731743	150.065829896043	855.820819441511	1214.75699616958	161.028973648582	1532.95061497796	1190.56422457641	139.53879638391	2080.63537387036	1084.68004700375	149.970243302896	1554.75913433206	480.891350837029	134.998672777103	714.140718986899	1142.19632516169	169.560557081733	1523.53942007306	634.651460186984	148.098803729047	877.463365477874	955.28832535153	184.298697279931	1206.59919732248	1148.08918708711	184.523435673213	1882.79676593307	1267.3716168907	147.652418301829	1587.01890973823	949.69264458888	173.555994742861	1864.71239759763	1214.07053610642	136.005977475148	2169.95090112299	798.098805540292	211.561779488175	1539.1759768019	1063.62027666468	140.356087984866	1710.59438223743
531.875295608293	142	878.550028614835	825.932934505567	231.65654789727	1069.9301374244	584.53814739308	150.107857852454	856.015543011758	1214.69198642312	161.062484149013	1534.19330800534	1189.79241162878	139.597125278888	2080.25279099908	1084.36945009006	149.986922974495	1555.45421859384	480.593386764759	135	714.078261124013	1141.13470195747	169.661727206268	1522.69159365487	634.606025509342	148.108386909201	877.678561774541	955.347368710149	184.3735736887	1206.94861765054	1148.10253192029	184.594958468866	1883.74172010037	1267.58007557786	147.66656069237	1588.02565317481	949.82809500115	173.666289545141	1865.26293857037	1214.33487580965	136.017727277756	2171.38533653523	798.43231750573	211.647437284886	1540.30101209922	1064.11582552699	140.433932448667	1712.45047299341
531.878302328635	142.010422579711	879.194224258379	826.152240659911	231.886102621199	1071.18285572327	584.40295151483	150.159960655163	856.292128529216	1214.6901136504	161.098803729047	1535.58840563962	1189.11665676202	139.653383335633	2080.0594906518	1084.16249081274	149.995349747749	1556.35129118445	480.327751197	135	714.090223151136	1140.31408297744	169.760443021937	1522.3801228462	634.630688169575	148.119874853948	878.108341531005	955.579231025673	184.471854061164	1207.7845984762	1148.23970344027	184.680164736795	1885.08831622182	1267.95926644319	147.702616735854	1589.54441879422	949.998421815417	173.773258189581	1866.16175647619	1214.74477497501	136.041506499712	2173.4972750299	798.737167060193	211.756065768008	1541.55625708617	1064.67919758496	140.524501038249	1714.63041042124
531.927811361309	142.023779221956	879.92408734673	826.383319818765	232.125237396797	1072.43196583461	584.315579191927	150.220342132806	856.650910244606	1214.80974582461	161.142588710869	1537.07145889239	1188.60308328533	139.707440711392	2080.17160143388	1084.13557002304	150	1557.52196034256	480.129723436325	135	714.232799254778	1139.86648837475	169.858194337653	1522.7591214807	634.758802649113	148.130209520281	878.770595424513	956.015357717284	184.5887069392	1209.09396320355	1148.5489351058	184.779136410495	1886.79957746804	1268.53798903156	147.755357188539	1591.50435197817	950.217668135031	173.876872874622	1867.37801848005	1215.28694238102	136.082229950902	2176.16738983009	799.020631766981	211.898654478876	1542.91672142659	1065.26555419518	140.620386784953	1716.97306941457
532.042839522044	142.04072345119	880.703754757798	826.655257832566	232.382071219878	1073.60622947942	584.298039302979	150.285459738251	857.066342685865	1215.09405061114	161.196127329702	1538.54173529485	1188.29102411756	139.758957331324	2080.63623897001	1084.33357822343	150.005977475148	1558.98151300612	480.019766057004	135	714.527678072169	1139.867516269	169.959646999898	1523.88022720246	635.003543673775	148.139003823654	879.641155286331	956.663621346821	184.720611212496	1210.81297737966	1149.05417404741	184.89196842426	1888.78345171381	1269.31882301465	147.817043171402	1593.78425173105	950.500675864351	173.979566525074	1868.85761049842	1215.93504429007	136.143386877018	2179.21348642054	799.296363098102	212.086284277401	1544.34596504636	1065.83426864015	140.713850688827	1719.31238848925
