Light	Light	Light	Light	Light	Light	Light	Light	Light	Light	Light	Light	Light	Light	Light	Light	Light	Light	Light	Light	Light	Light	Light	Light	Light	Light	Light	Light	Light	Light	Light	Light	Light	Light	Light	Light	Light	Light	Light	Light	Light	Light	Light	Light	Light	Light	Light	Light
Optode1-730nm	Optode1-Ambient	Optode1-850nm	Optode2-730nm	Optode2-Ambient	Optode2-850nm	Optode3-730nm	Optode3-Ambient	Optode3-850nm	Optode4-730nm	Optode4-Ambient	Optode4-850nm	Optode5-730nm	Optode5-Ambient	Optode5-850nm	Optode6-730nm	Optode6-Ambient	Optode6-850nm	Optode7-730nm	Optode7-Ambient	Optode7-850nm	Optode8-730nm	Optode8-Ambient	Optode8-850nm	Optode9-730nm	Optode9-Ambient	Optode9-850nm	Optode10-730nm	Optode10-Ambient	Optode10-850nm	Optode11-730nm	Optode11-Ambient	Optode11-850nm	Optode12-730nm	Optode12-Ambient	Optode12-850nm	Optode13-730nm	Optode13-Ambient	Optode13-850nm	Optode14-730nm	Optode14-Ambient	Optode14-850nm	Optode15-730nm	Optode15-Ambient	Optode15-850nm	Optode16-730nm	Optode16-Ambient	Optode16-850nm
292.542026075607	141.074233951621	600.487296561757	1425.60878738253	233.0439889528	2059.01118479715	668.010268898368	141.004650252251	1302.61456067299	996.426017293961	163.660312069993	1439.95097527656	1066.24934462667	130.570267370846	2413.71606553779	1048.47789425131	152.484995907215	1598.56536097184	617.499261022616	128.553867315988	1130.94976534391	1131.17208883708	172.631620737925	1592.65581784986	864.853205777088	141.779659905021	1550.76198279088	1472.33017975098	187.614243231409	2144.82360418556	1296.1279919718	139.642672705616	2357.88068699088	786.242277924506	151.844684034866	1126.34059792311	622.579557268739	128.574582307538	1419.24913946398	950.271521974027	140.517723359125	1903.4731757344	347.294074575599	127.163921334492	915.129961909879	676.370118562841	184.726401564874	1154.00093977844
292.490250656727	141.093031401587	600.341413223771	1423.56976390285	232.600156125537	2055.26082431001	667.773134296986	141.001327222897	1301.75779730337	995.271483869564	163.57204502648	1437.79999792687	1065.7820635754	130.577130859879	2411.76250255721	1047.51156790432	152.387667499386	1595.54432086954	617.085336401319	128.56073080502	1130.79819924698	1129.91369508759	172.476999907935	1590.33736677014	863.969046731223	141.779919725055	1550.2432488726	1470.54028049932	187.476999907935	2141.53189068623	1295.93566496489	139.642305175498	2359.23300396766	785.831022138649	151.815622472906	1125.69062177311	621.817037371967	128.488593142711	1416.44215087057	949.228820902237	140.423042863408	1898.72135220992	346.929766795477	127.137938458618	913.479216612613	675.3888129818	184.513073106874	1151.445642785
292.400057859258	141.118809488912	599.943897759113	1420.83938636229	231.943245708908	2050.01414557733	667.439548297398	141	1300.39077839514	993.959945108863	163.475498961751	1435.15995261305	1065.19432934936	130.56713252046	2408.83392287702	1046.39265151182	152.276136516073	1591.92870133439	616.538052599319	128.542026075607	1130.21625130216	1128.55162416585	172.297383264146	1587.54161016005	862.887127317309	141.784758552182	1549.48748017213	1468.71058107001	187.313433547765	2137.96711213947	1295.34465068845	139.62442744593	2359.27593797424	785.114422869946	151.779310133782	1124.331050946	620.999919731512	128.410481687538	1412.81377866113	947.831957334913	140.320895287215	1892.685379854	346.452857929406	127.117932698753	911.039735614778	674.093894497914	184.274461559764	1147.85699960937
292.262269586414	141.149426403365	599.24341895747	1417.42484264042	231.075515042642	2043.21367301977	666.999895548855	141	1298.42270073713	992.549864164852	163.3736357399	1431.99333259331	1064.4448119017	130.541069303798	2404.77453437999	1045.05072442079	152.151302607811	1587.51424135045	615.856267803338	128.500345852608	1129.07295385345	1127.08981348533	172.101082211157	1584.1891427946	861.710195488417	141.79439844251	1548.37974771398	1467.01026752241	187.127925663518	2134.14169662042	1294.43555383265	139.590202372788	2357.66417142137	784.134954393431	151.732529225795	1122.16871595818	620.143484231367	128.348917676585	1408.35896059011	946.113944316446	140.224463328309	1885.56149474177	345.889607773778	127.106530629557	907.92544781344	672.52784516387	184.014818840187	1143.3654310296
292.079125540579	141.182962390819	598.223058715903	1413.46363423487	230.037721202391	2035.03014836762	666.467750887872	141	1295.83721979138	991.135846043081	163.268422033417	1428.33850622953	1063.52402043941	130.50157729604	2399.58287114243	1043.46137279734	152.015783222676	1582.22760899967	615.064233070223	128.440420369924	1127.31205844129	1125.55659632303	171.898917788843	1580.28044404965	860.550575952198	141.807306330706	1546.86387902894	1465.60069943516	186.927093271276	2130.13122783107	1293.31133402797	139.541590494459	2354.2311483564	782.962214414234	151.673127237637	1119.20682406374	619.272596293999	128.306953237188	1403.20268068252	944.151812984327	140.143386877018	1877.69671673854	345.278420372836	127.103207600203	904.348766363728	670.772115859256	183.740261638901	1138.22528927474
291.861263375233	141.215777756107	596.90990849686	1409.20098983887	228.905770203058	2025.87014865848	665.877224072172	141	1292.71195410349	989.83191369591	163.161832052435	1424.32480980499	1062.465722451	130.452170172532	2393.42212088411	1041.66403635146	151.87381134399	1576.15757873068	614.215357404734	128.369766498344	1124.96175055726	1124.01150185409	171.702616735854	1575.90914195721	859.515878085996	141.821599948054	1544.94709515778	1464.61002224233	186.719190514	2126.06223407967	1292.08392648186	139.482362450784	2349.00691745094	781.686457868739	151.600910081835	1115.55063920281	618.421729039994	128.284508479038	1397.57811036492	942.060521759503	140.082229950902	1869.53834297424	344.665059746186	127.106182896144	900.585441625619	668.936712088405	183.459474870577	1132.77258766712
291.624603759921	141.244642811461	595.368521181855	1404.94811356525	227.773537490636	2016.31523721045	665.277491501034	141	1289.20570532272	988.751870605336	163.054057375759	1420.15276120231	1061.34870074459	130.396964529119	2386.60278618606	1039.76569166379	151.730792218287	1569.55166304402	613.387129031785	128.295882317962	1122.13640971494	1122.54761339109	171.523000092065	1571.25913376491	858.690203656038	141.8330878928	1542.69756625577	1464.11401713268	186.513676869888	2122.09698181513	1290.85843354743	139.41566369631	2342.22267347994	780.406818624092	151.518073130364	1111.39124475824	617.628011750522	128.2774484834	1391.78363186668	939.972674780895	140.040179276815	1861.55471950614	344.093291429156	127.112832013765	896.919430772282	667.141470653594	183.181984939161	1127.36025456471
291.387152898319	141.26721678243	593.694491786253	1401.02116783532	226.733816345878	2007.04834801134	664.720784620099	141	1285.54229253488	987.986358050554	162.947269847138	1416.07257287673	1060.28683034272	130.338889763857	2379.53495820195	1037.92214580966	151.591523767425	1562.76045697488	612.671106227875	128.224992385057	1119.01608504508	1121.28425501656	171.368379262075	1566.57957844696	858.119335666681	141.840039344837	1540.22281947235	1464.12390443855	186.319795929681	2118.39911403774	1289.71612437127	139.346616664367	2334.26955151874	779.215330123754	151.429020338555	1106.97194111753	616.921389905076	128.281051059921	1386.12258774437	938.014670164947	140.011749802608	1854.1556710466	343.598829576096	127.118547631051	893.593513165561	665.491249213453	182.917069306891	1122.29681003337
291.16311367236	141.282113991221	591.993975091588	1397.69369694486	225.859189917497	1998.73945886336	664.250460674445	141	1281.96697059576	987.584084629848	162.842818199815	1412.33823449846	1059.40697097047	130.279747595733	2372.66614413493	1036.30405644591	151.461732534895	1556.1762475432	612.155833105913	128.16128787806	1115.82007813179	1120.34814681129	171.243517828962	1562.15129938827	857.809313795895	141.840039344837	1537.65075147462	1464.59576061121	186.143386877018	2115.11410316321	1288.71926297807	139.278443090512	2325.65922555089	778.192659505664	151.339600016629	1102.55783241501	616.319188845276	128.290022077123	1380.84287484739	936.284406921377	139.988250197392	1847.61675899347	343.201502527618	127.11978694057	890.761221190056	664.058149364623	182.671123031242	1117.78665272024
290.958214960546	141.289480602522	590.357735604283	1395.15583898684	225.190915961767	1991.9499544762	663.885840447654	141	1278.69722890711	987.538609016341	162.743327769191	1409.15953206728	1058.81350188515	130.221755231254	2366.41319886937	1035.04610504704	151.345665405154	1550.14738418243	611.904849840953	128.107857852454	1112.77130985311	1119.83698241196	171.149364352165	1558.23912001562	857.724354692933	141.8330878928	1535.11002634329	1465.43854755339	185.989551795323	2112.35311715896	1287.89802176158	139.215233581732	2316.96860814556	777.391913092076	151.255957032922	1098.40222622724	615.820866727955	128.299508653192	1376.10903513774	934.840290768951	139.961147946082	1842.07043567838	342.905721551343	127.113897378801	888.478844640357	662.871279257556	182.446218559564	1113.91718450454
290.767293132287	141.291665342994	588.843553949455	1393.50995649568	224.735584889935	1987.0613936936	663.618313924104	141	1275.88281897492	987.794968312735	162.650143482056	1406.66736925881	1058.56541985106	130.1669121072	2361.10501915021	1034.21660835394	151.245796311072	1544.92551396787	611.939840298205	128.065829896043	1110.05669876028	1119.79722325016	171.083557173799	1555.04723536432	857.797601841028	141.821599948054	1532.70543141935	1466.53220195509	185.860679867335	2110.17389235421	1287.2605369462	139.159532940102	2308.76315502225	776.840258370385	151.183312162058	1094.7195421375	615.408687366432	128.305799737577	1371.9859341547	933.695025639029	139.922420301349	1837.51231208187	342.700371715972	127.101082211157	886.71495321108	661.915850776931	182.239818835924	1110.66322762062
290.578458082776	141.291232065711	587.467683518321	1392.77811047962	224.471466175245	1984.25219158303	663.416141776676	141	1273.58941951754	988.267070091765	162.565224489439	1404.90665739928	1058.65856314652	130.117932698753	2356.94874394594	1033.79423554088	151.16463362509	1540.63366863903	612.23389888852	128.035529024564	1107.80323523784	1120.20477234195	171.041506499712	1552.69335497136	857.944544594628	141.808633553603	1530.51197014148	1467.74914652424	185.757034182675	2108.59318220745	1286.7942340036	139.113487594189	2301.55149558218	776.536007668864	151.1239101739	1091.67478761832	615.051237778187	128.30794023362	1368.46106872074	932.827810410908	139.869690148487	1833.85292519394	342.566864265376	127.082403674188	885.385199285057	661.145436078868	182.045025970028	1107.9263880982
290.376084234167	141.290016514902	586.211811205482	1392.93106471689	224.359220797864	1983.5232423038	663.236851692929	141	1271.80799303526	988.865201855111	162.490439122533	1403.85399007618	1059.02606939701	130.077556980975	2354.0363194983	1033.67807185848	151.102663425828	1537.27938735449	612.715311876754	128.016400054859	1106.07101137118	1120.96697784657	171.017727277756	1551.20709019714	858.080656662595	141.797721471864	1528.57848114754	1468.97363680063	185.67962056242	2107.60287371967	1286.47216940081	139.078884203872	2295.73288017894	776.453946700108	151.078884203872	1089.37510438962	614.714048980882	128.305893213177	1365.4820068409	932.198415758571	139.802638923	1830.98027494327	342.481945876183	127.061156926116	884.393124794206	660.500509267539	181.853093652666	1105.58462395706
290.147950005149	141.288448423506	585.031871519389	1393.91460543977	224.353701400344	1984.72240119767	663.044690604777	141	1270.47335066378	989.52359982861	162.426741856446	1403.43641426834	1059.56168452809	130.046700926337	2352.3420757675	1033.72158758364	151.058450728946	1534.77416338391	613.286299730601	128.005977475148	1104.8528217839	1121.95158950276	171.005977475148	1550.53326042878	858.13608846086	141.791858102539	1526.92793891753	1470.11749411012	185.628758747917	2107.17999980379	1286.25926356921	139.057123506049	2291.55480764067	776.550265373028	151.046700926337	1087.86535275492	614.366458527194	128.30123040513	1362.99122919613	931.756249532521	139.726927714332	1828.80091826482	342.424301179473	127.04072345119	883.659366460228	659.921772575428	181.655325490828	1103.53349056124
289.889867327774	141.285366262651	583.883665152057	1395.66025426278	224.413590721027	1987.60390477534	662.822856749512	141	1269.50835978961	990.215296097951	162.374678608456	1403.57628937787	1060.14784041781	130.025106444853	2351.78108960571	1033.77696472942	151.029756697104	1532.99749294162	613.845673567845	128.001327222897	1104.10363125334	1123.01790838107	171.002654445794	1550.57882134953	858.068948497375	141.791949144403	1525.56989655336	1471.13432105542	185.604162778047	2107.30677458895	1286.12460249188	139.048885666809	2289.10611474921	776.779580536132	151.025106444853	1087.13397807476	613.992189874921	128.297642818141	1360.96002752267	931.462085525034	139.64881625916	1827.27558698397	342.377594690914	127.023779221956	883.142003146488	659.369745232312	181.446926901819	1101.71760397769
289.607667792682	141.279482263103	582.737407989408	1398.08413078702	224.50669929144	1991.8522826768	662.582131638417	141	1268.84793807168	990.957129973956	162.333803930459	1404.2070814941	1060.68858144654	130.011749802608	2352.23006090308	1033.74133522912	151.013077025505	1531.83819714291	614.315808880072	128	1103.76006183283	1124.05925481641	171.004650252251	1551.23720051507	857.87178307208	141.796604134255	1524.5183769531	1472.02165376332	185.605403766254	2107.98666815518	1286.04712625294	139.052473253798	2288.33666069482	777.100126259624	151.011749802608	1087.13108483255	613.594265119172	128.298536763756	1359.40319381619	931.292051958568	139.57564706915	1826.42167525422	342.333023960797	127.011749802608	882.83501827036	658.828762060373	181.228056615462	1100.13526007179
289.315122959755	141.267886121038	581.590253764564	1401.06647783728	224.611291428138	1997.11458833527	662.355257340825	141	1268.46542483719	991.79043759912	162.303099102628	1405.29233879081	1061.13072069623	130.004650252251	2353.57167536094	1033.583364463	151.005977475148	1531.23978544724	614.655174497655	128	1103.77060730142	1125.02536257283	171.011749802608	1552.42575170656	857.569063931104	141.803328495923	1523.7914091502	1472.81514445857	185.630399580052	2109.23380867754	1286.02265494668	139.067134401264	2289.08088808683	777.484449532779	151.004650252251	1087.77744366029	613.197247412366	128.306416569761	1358.36749796658	931.243447403158	139.512891121592	1826.2908096729	342.286693485548	127.004650252251	882.750819448598	658.308223146486	181.004650252251	1098.82608349222
289.03046342548	141.248757151332	580.469605275141	1404.44535268287	224.713850688827	2003.00898987309	662.185567627216	141	1268.3718127969	992.762558285458	162.281162732008	1406.81741048684	1061.46808442191	130.002654445794	2355.71708267354	1033.34457602903	151.007304698044	1531.21228479465	614.863763176148	128.001327222897	1104.11208311195	1125.92467111004	171.025106444853	1554.10094649026	857.208485475916	141.80933138852	1523.42160307446	1473.57429237193	185.674275175026	2111.06838887271	1286.06408228756	139.088381149336	2291.11578010293	777.921641107536	151.001327222897	1088.98758855713	612.843623883983	128.32397744807	1357.91880782188	931.33226157437	139.462815055385	1826.94343527562	342.24088420096	127.001327222897	882.901633104249	657.836319185938	180.78634763294	1097.84846481502
288.772025956891	141.220957065105	579.425431662131	1408.0154671182	224.808411250461	2009.13939014093	662.11516774741	141	1268.60616629886	993.902970393294	162.267020341468	1408.77563341006	1061.73290829413	130.004650252251	2358.58630144184	1033.11799969326	151.017727277756	1531.80743456553	614.973679815582	128.005977475148	1104.78049763504	1126.81005943884	171.046700926337	1556.2387487624	856.848728865382	141.811693046407	1523.45056972505	1474.36116999894	185.732119441184	2113.50034275358	1286.19649835844	139.114159236662	2294.20580511825	778.411054764302	151	1090.6793837254	612.585880321936	128.351196158694	1358.11371225677	931.583545350849	139.425412954861	1828.41245793377	342.200689668575	127.001327222897	883.281056850849	657.449872612015	180.584157018181	1097.25202502755
288.552227732421	141.184813108242	578.516569471969	1411.54072920148	224.892142147546	2015.11526995117	662.169199178059	141	1269.21656904573	995.205313610405	162.261065583996	1411.15081158091	1061.97373056226	130.011749802608	2362.11280124256	1033.01097306433	151.040179276815	1533.09208732489	615.034956128269	128.016400054859	1105.79188932906	1127.74604008423	171.077556980975	1558.82746563346	856.544051647743	141.808004165623	1523.9170248787	1475.21819065149	185.797037411537	2116.5035836092	1286.44679983627	139.142326853007	2298.13447621019	778.954665117032	151	1092.77852575486	612.475536564693	128.38601289266	1358.979763634	932.021853028124	139.397078634942	1830.6793657936	342.170476710474	127.004650252251	883.855692439508	657.183133068922	180.409102713265	1097.05893348161
288.374955317906	141.143560600305	577.792593862349	1414.78303357547	224.963143752539	2020.56498947216	662.347103010288	141	1270.22718219825	996.62160742797	162.264663422916	1413.89202784886	1062.23717334301	130.023779221956	2366.19355598812	1033.1085835586	151.076252475754	1535.08476888734	615.100102119148	128.035529024564	1107.15193567129	1128.78238780856	171.117932698753	1561.82265759453	856.336734789066	141.797351020775	1524.85134503456	1476.15768264663	185.863516232377	2120.01251377214	1286.83596117177	139.170932971471	2302.72404125947	779.551594820048	150.998672777103	1095.21565039957	612.550153015486	128.423196523951	1360.49481020117	932.658057801512	139.375207665203	1833.65752492523	342.154338513477	127.011749802608	884.567778361402	657.05882035132	180.267297050918	1097.25088246708
288.236306606517	141.101880377306	577.27879416475	1417.53879222508	225.020977649301	2025.16228634143	662.621951703021	141	1271.62029322984	998.067251338517	162.277463601028	1416.90243086943	1062.54916714711	130.04072345119	2370.67425036715	1033.44302277216	151.125659599262	1537.72122519586	615.209541571551	128.064502673146	1108.83701545348	1129.9288416241	171.165584884303	1565.12688103463	856.247664841802	141.780204079396	1526.25462817108	1477.15466974365	185.927093271276	2123.90595710615	1287.36657385189	139.198833526873	2307.82283736856	780.186740274806	150.995349747749	1097.91456966948	612.824981260198	128.456022258634	1362.58970813255	933.481083862171	139.356355183752	1837.19910029762	342.152883822482	127.023779221956	885.345473834693	657.08103731014	180.161114154774	1097.76873021105
288.12478696406	141.064502673146	576.965552954051	1419.66855012182	225.063349173536	2028.65086582682	662.945347567952	141	1273.31953040146	999.43509324108	162.29763725592	1420.03846588492	1062.90202214325	130.061156926116	2375.35808749925	1033.97909304027	151.184284051495	1540.84355218231	615.381427653327	128.101880377306	1110.78987432787	1131.14347459654	171.215777756107	1568.59012647981	856.27774814774	141.756420119839	1528.08769779693	1478.15474289456	185.983599945141	2128.01270882054	1288.01952738022	139.225536559432	2313.27623884739	780.829490079676	150.988250197392	1100.77704055489	613.287968138985	128.477987329149	1365.14437319939	934.453605574554	139.339149583892	1841.10228900864	342.164364526319	127.04072345119	886.115908326393	657.234323455127	180.086880203152	1098.51910026719
288.025205699087	141.035529024564	576.811294020028	1421.11764521002	225.089127260862	2030.86905675979	663.25730134168	141	1275.19885858288	1000.62001020289	162.321424343963	1423.12488631981	1063.26026455443	130.082403674188	2380.00779892007	1034.62366279956	151.244642811461	1544.20573196358	615.613191661765	128.143560600305	1112.9117612409	1132.34440128778	171.262020317978	1572.01628438446	856.411039261397	141.72868265229	1530.26691792556	1479.08698527904	186.031400229013	2132.12474959774	1288.74980978284	139.249293063712	2318.90122037117	781.433845684148	150.976220778044	1103.67426190394	613.901874272415	128.482977383082	1368.00506098706	935.514167511367	139.323287875148	1845.13845523241	342.182956828598	127.061156926116	886.81838762342	657.486794084003	180.036856247461	1099.38759118105
287.925074747143	141.016400054859	576.750917596571	1421.91930843085	225.094842878148	2031.75826008917	663.505904766827	141	1277.10119288169	1001.54165539138	162.342756967586	1425.97949940346	1063.57275212017	130.101082211157	2384.37328648352	1035.25290049077	151.297383264146	1547.51095076613	615.887083961776	128.183485885345	1115.07225421428	1133.4325992485	171.297383264146	1575.18832377523	856.621340385239	141.700491346808	1532.66403555162	1479.8826748987	186.069326648683	2136.01718796574	1289.49101912679	139.269207781713	2324.45935629879	781.943000266036	150.95927654881	1106.44011083734	614.611114180457	128.470071173575	1371.00174551303	936.584922905612	139.309145484607	1849.07183591161	342.201287632154	127.082403674188	887.408897304514	657.794250294563	180.001327222897	1100.25404353775
287.816260122881	141.005977475148	576.714738957785	1422.18295114106	225.078280440858	2031.36332895392	663.660619072417	141	1278.87244884552	1002.16371852534	162.355998171603	1428.4436018273	1063.78810258514	130.1138973788	2388.21957602603	1035.74748283978	151.33343930763	1550.46017832768	616.180281116772	128.214979589957	1117.12514730955	1134.31832902972	171.316061801114	1577.90008968636	856.876910077656	141.675495533009	1535.11366516611	1480.48622247088	186.096431958906	2139.46399039233	1290.16073060348	139.284044601976	2329.6430632103	782.294098885962	150.937515850987	1108.87692329866	615.351340308673	128.441721400376	1373.95626546034	937.577719671593	139.297116065259	1852.66911037374	342.20900211481	127.101082211157	887.856959077163	658.108970417099	179.970448450583	1101.00203939298
287.69823368249	141.001327222897	576.642643602322	1422.06392075484	225.04029934884	2029.80788384124	663.719542699007	141	1280.38897151969	1002.49715528029	162.356811444749	1430.40177668466	1063.87467393355	130.118459717673	2391.36628395577	1036.02995128483	151.346254475274	1552.81395426314	616.475536302728	128.232357096474	1118.93512221444	1134.94762536565	171.314760770662	1579.99242889589	857.152180103392	141.655915809517	1537.43262888789	1480.87314652884	186.111242933007	2142.26590218105	1290.67772265129	139.292297430747	2334.09723449029	782.434909512875	150.911618850664	1110.77220817595	616.061334963056	128.402609388481	1376.70646163703	938.40929199135	139.285887453312	1855.72336393199	342.195500849012	127.113897378801	888.142810473111	658.388207725419	179.936824549751	1101.53478520897
287.576957136592	141.001327222897	576.501271217258	1421.72894381617	224.98737756219	2027.26682073586	663.710220972734	141.001327222897	1281.58543174755	1002.59621372202	162.345818498218	1431.7961499821	1063.83311905919	130.1138973788	2393.70272995134	1036.09061869292	151.33343930763	1554.43562132173	616.770069549991	128.232357096474	1120.39611114494	1135.31579184798	171.29351402259	1581.37308895519	857.429554957524	141.643758922071	1539.43657902489	1481.04927786638	186.113809465422	2144.25823853905	1290.97809005066	139.292448657554	2337.45108125118	782.331709730867	150.882517733985	1111.92700124922	616.690127669843	128.360033491555	1379.10887887918	939.010194532608	139.273342405525	1858.05570093581	342.150127145572	127.118459717673	888.246728849305	658.599058253786	179.899446845591	1101.77697240054
287.46314767117	141.004650252251	576.288505736204	1421.32197872855	224.933574178205	2023.9217215412	663.682310462988	141.004650252251	1282.45946315593	1002.5396278017	162.325533121612	1432.62168694292	1063.69216256017	130.101082211157	2395.21542294207	1035.98878561625	151.297383264146	1555.3300425246	617.073012622177	128.214979589957	1121.45447160524	1135.46045560339	171.255703041147	1582.03671408981	857.701914745079	141.636633179269	1540.96750782172	1481.04890193239	186.100820353295	2145.33727264773	1291.03156375584	139.283354979428	2339.38793895833	781.98231367374	150.850573596635	1112.19513027981	617.206961287103	128.320558960301	1381.05064604156	939.335864795189	139.256224231808	1859.52792659368	342.065615237792	127.113897378801	888.146306903801	658.726441908852	179.861089651946	1101.68263835765
287.369706484972	141.011749802608	576.033160784203	1420.94058593233	224.900854336976	2019.94634462723	663.693594510422	141.011749802608	1283.06919604813	1002.41031362011	162.30352681769	1432.92269758338	1063.50143448639	130.082403674188	2396.00460046264	1035.83596131406	151.244642811461	1555.64887063152	617.403737263126	128.183485885345	1122.12563879534	1135.44741546253	171.207265107301	1582.07523659614	857.974461807907	141.631355576866	1541.92287821019	1480.93453072343	186.07265273695	2145.48389471485	1290.85593663257	139.264648571327	2339.73032269933	781.421186276957	150.817037609181	1111.52545988671	617.604212994016	128.290371848363	1382.46581901584	939.379156719105	139.232618954335	1860.07018294458	341.939968056383	127.101082211157	887.821764061066	658.774650370967	179.82959114016	1101.24417372609
287.308020502108	141.023779221956	575.785914310815	1420.63169313511	224.913777563995	2015.49503921668	663.793748210621	141.023779221956	1283.51177019829	1002.27649878454	162.2862579044	1432.77542067629	1063.31783065283	130.061156926116	2396.25537887685	1035.7675521932	151.184284051495	1555.6547636339	617.781238281976	128.143560600305	1122.48368419932	1135.35122088886	171.155310402913	1581.65659410864	858.258992249574	141.623362080894	1542.2677683987	1480.77732417889	186.02993042039	2144.7666624468	1290.51291544836	139.237024504179	2338.48381702831	780.715525358297	150.784222243893	1109.98339252668	617.895659984016	128.274663800162	1383.34311474027	939.165829907388	139.20095130524	1859.6920963654	341.77518133823	127.082403674188	887.260680651623	658.76502061638	179.814777107147	1100.49393169371
287.288100976933	141.04072345119	575.605693130771	1420.40335567786	224.994840946117	2010.7080221164	664.012664837757	141.04072345119	1283.89703991731	1002.18130259081	162.279215064217	1432.27274677387	1063.18777195952	130.04072345119	2396.20387105614	1035.90174143803	151.125659599262	1555.66251865059	618.217710641902	128.101880377306	1122.64598337025	1135.23433269665	171.106530629557	1580.99889183991	858.571691621777	141.607667792682	1542.0463421027	1480.65159127316	185.976220778044	2143.35228646383	1290.09837784784	139.203395865745	2335.87491067704	779.953876506289	150.755357188539	1107.7557584803	618.113300471419	128.276919426653	1383.74167806644	938.757889736089	139.16356636017	1858.50721812929	341.580207508138	127.061156926116	886.475704789256	658.732912045112	179.826093632472	1099.51023292126
287.313997977256	141.061156926116	575.547175009601	1420.24405774592	225.157255706562	2005.73820513882	664.355691091681	141.061156926116	1284.32398195019	1002.13867175102	162.285272521013	1431.5162481204	1063.14022593346	130.023779221956	2396.09098084595	1036.31287897203	151.076252475754	1555.96316702918	618.712074281761	128.064502673146	1122.74684752544	1135.13816055778	171.065829896043	1580.329316401	858.929207491037	141.578973760841	1541.38439031163	1480.62499577892	185.917596325812	2141.4966014477	1289.72278281545	139.166370632599	2332.33511333422	779.233878367366	150.73278321757	1105.13190786248	618.30009897188	128.298007707008	1383.78700558514	938.242713607971	139.123127125378	1856.72639475635	341.367863412439	127.04072345119	885.506123313558	658.72115663544	179.870306329354	1098.40771975165
287.387433762727	141.082403674188	575.647068859187	1420.14716316912	225.402536167997	2000.75833500006	664.80189884727	141.082403674188	1284.8568700584	1002.14094863378	162.30176631751	1430.60171756618	1063.18055768918	130.011749802608	2396.10104089877	1037.01378749332	151.040179276815	1556.75281012366	619.249237157377	128.035529024564	1122.90216793334	1135.08271899394	171.035529024564	1579.84055157413	859.34048325844	141.535102903468	1540.4581765976	1480.73935415359	185.861540084683	2139.49585861129	1289.47606787466	139.129511685363	2328.40956195052	778.635068119185	150.717886008779	1102.44451135222	618.499100798084	128.335579152357	1383.6598434744	937.715575589219	139.084936148072	1854.63970888699	341.154338513477	127.023779221956	884.422739235581	658.770379517693	179.949654035133	1097.32890514439
287.505981393778	141.101082211157	575.92221633037	1420.12954803911	225.717121315488	1995.98490770728	665.312741190332	141.101082211157	1285.52945546984	1002.1706833873	162.322837442411	1429.63123921246	1063.2936269233	130.004650252251	2396.35229450451	1037.96034226055	151.017727277756	1558.10407761939	619.800971843409	128.016400054859	1123.1977781389	1135.06936874268	171.016400054859	1579.67252660362	859.806860601359	141.476022456277	1539.46651897262	1481.01422169113	185.815448749619	2137.6469140927	1289.41567869063	139.095480699693	2324.66106989814	778.214236054893	150.709192174581	1100.01134588378	618.74807274561	128.385497214595	1383.56819029154	937.271502877402	139.052473253798	1852.57582767497	340.956824343414	127.011749802608	883.317564401945	658.915164375531	180.06098320283	1096.4207547948
287.665164562642	141.113897378801	576.367208327634	1420.2396416395	226.077155458359	1991.6639943575	665.845211561842	141.113897378801	1286.34149644646	1002.21625666558	162.339867215515	1428.7046268756	1063.45070829564	130.001327222897	2396.89828741125	1039.06730680412	151.005977475148	1559.97315814066	620.33424511867	128.005977475148	1123.68345994246	1135.09527157664	171.005977475148	1579.90742527265	860.319251755307	141.406568339496	1538.6026593031	1481.43988459237	185.785108323421	2136.20887319039	1289.55220405352	139.065807178367	2321.58120039152	777.990604137694	150.702357181858	1098.08864633507	619.06987101543	128.442074646384	1383.71538035945	936.983842557828	139.029756697104	1850.85019284327	340.790824161904	127.004650252251	882.291542557856	659.177132942132	180.196127329702	1095.81387165823
287.859347837264	141.118459717673	576.960478347073	1420.55241972138	226.4540972101	1988.06308781683	666.360823212606	141.118459717673	1287.28146788398	1002.2804441715	162.345189110238	1427.93016311962	1063.6179440099	130	2397.74420091677	1040.23518992857	151.001327222897	1562.23342617074	620.817119470747	128.001327222897	1124.37603699632	1135.16034914885	171.001327222897	1580.57400443936	860.861901196778	141.333827689168	1538.0208502614	1481.98901539437	185.774859688193	2135.36188896243	1289.85601861918	139.042050674087	2319.49980005847	777.952533280305	150.69236787943	1096.8258110556	619.475112132029	128.49807293272	1384.26667153891	936.901721371724	139.017727277756	1849.71768012977	340.66771419198	127.001327222897	881.436997412805	659.565429829497	180.34345210273	1095.60520507987
288.082229950902	141.113897378801	577.674341639588	1421.1572008949	226.820099791128	1985.43739111864	666.83861192865	141.113897378801	1288.34074993452	1002.38771047218	162.333527221008	1427.4167972909	1063.76717681002	130	2398.90124600345	1041.37984489703	151	1564.74571283723	621.227684915805	128	1125.28682102182	1135.27378454654	171.001327222897	1581.6805432857	861.413715930101	141.269034058427	1537.81947215365	1482.61836665316	185.785108323421	2135.1922252764	1290.26863210713	139.023779221956	2318.55706689478	778.062500692999	150.673127237637	1096.26002539917	619.959840978301	128.547368384141	1385.32506966965	937.043493113481	139.016400054859	1849.33112103873	340.594169813281	127	880.823844034123	660.077525484714	180.490164846818	1095.84216155871
288.32819998526	141.101082211157	578.482218478595	1422.13201299896	227.156633677467	1983.9918050068	667.27423857824	141.101082211157	1289.52542640327	1002.57017819736	162.304600048812	1427.26336066225	1063.88798907668	130	2400.37704263464	1042.45439559527	151	1567.38969083672	621.560962918002	128	1126.41806728221	1135.45818695897	171.005977475148	1583.20537389448	861.957293811523	141.223491438873	1538.0395157512	1483.28724730339	185.816775972516	2135.69670266748	1290.7287172685	139.013077025505	2318.70903106162	778.274118901662	150.642398651097	1096.3248201214	620.510560888106	128.584746088301	1386.92024418647	937.398383338291	139.025106444853	1849.72787751346	340.570390591325	127	880.490534060846	660.701431739983	180.624783045429	1096.52095153438
288.588980993719	141.082403674188	579.364030504456	1423.51800511516	227.454286051014	1983.84333644871	667.67400699451	141.082403674188	1290.85622092341	1002.85356574298	162.262108231356	1427.53993250323	1063.98592362624	130	2402.20889616837	1043.45025629328	151	1570.10627216037	621.827927353135	128	1127.78223910658	1135.73699629599	171.017727277756	1585.12281497115	862.478495075484	141.204812901905	1538.6626740678	1483.9583852245	185.866190336934	2136.78802391253	1291.18603455776	139.009300504501	2319.76181435627	778.540385149838	150.599676334538	1096.87512815246	621.108640900976	128.606104508461	1389.01011844375	937.931603178631	139.04072345119	1850.83089037387	340.590134493329	127	880.43969517946	661.417988625981	180.739130856967	1097.58995425223
288.856345924096	141.061156926116	580.306014395829	1425.3058775794	227.716035695337	1984.99584417227	668.048502289811	141.061156926116	1292.35675583903	1003.24341721716	162.214712391071	1428.26820195555	1064.08358330021	130	2404.43301049624	1044.39289861918	151	1572.88693223882	622.052525005175	128	1129.39140182037	1136.13001827623	171.040179276815	1587.38780333014	862.970653087508	141.217620828639	1539.63627202455	1484.60419168807	185.92934612842	2138.33337246164	1291.61632500562	139.014404248402	2321.45404842391	778.828016514182	150.548527662385	1097.73433407189	621.731577966583	128.610487699767	1391.47872018726	938.590584135907	139.061156926116	1852.45918037674	340.642787032635	127	880.634562554208	662.201837605964	180.829388899762	1098.95154449338
289.119949323001	141.04072345119	581.295382834523	1427.42310829528	227.95226862296	1987.32366291505	668.401845867047	141.04072345119	1294.03207283321	1003.71152064561	162.17068556929	1429.40377602424	1064.21287246699	130	2407.05817883459	1045.32193477554	151	1575.74788611904	622.266844767089	128	1131.24462502415	1136.6426253961	171.076252475754	1589.92751796558	863.432429177818	141.260741674936	1540.89283492645	1485.20630908969	186.001327222897	2140.19114134809	1292.02215280954	139.029756697104	2323.53771579108	779.118556272133	150.496154739819	1098.73857160079	622.361200198277	128.600476804552	1394.16944962096	939.3193029205	139.083730897085	1854.38063217893	340.715960960246	127	881.014182407251	663.027760890647	180.897336574172	1100.48642329814
289.368185283673	141.023779221956	582.313397859338	1429.74363700701	228.174586765517	1990.58828884407	668.724734804527	141.023779221956	1295.8486552295	1004.19577624386	162.13740940187	1430.83655464474	1064.39540627024	130.001327222897	2410.04316010132	1046.26128796526	151	1578.69429759114	622.496237964389	128	1133.31529762656	1137.25239292317	171.125659599262	1592.63944692685	863.863986727858	141.32819998526	1542.36485046025	1485.75070604298	186.076631346728	2142.23801419546	1292.42704375596	139.058450728946	2325.83981583921	779.405685987115	150.451327110638	1099.77186357007	622.982465452078	128.581681857896	1396.89971671365	940.064800357377	139.105732463407	1856.34476212145	340.797914201697	127	881.50041522446	663.868568073277	180.946199523305	1102.06699157742
289.589570063839	141.011749802608	583.332631424302	1432.11687347586	228.393540158079	1994.47803270315	668.994876756031	141.011749802608	1297.72808318659	1004.61757456702	162.118280432165	1432.40451774977	1064.6358150098	130.004650252251	2413.27251671688	1047.20365712064	151	1581.68385599566	622.754891697598	128	1135.5391282354	1137.91185653567	171.184284051494	1595.38755092229	864.268310627368	141.411796492582	1544.00468704507	1486.23110139994	186.150209717925	2144.40054720194	1292.86355896315	139.101336202931	2328.30913320714	779.69242593264	150.423558713043	1100.79155473724	623.58843022975	128.559916352899	1399.49394806257	940.790157993918	139.125647181409	1858.13479945911	340.880317875885	127	882.016067596063	664.70232760855	180.981993105504	1103.5778001631
289.77438317208	141.004650252251	584.310670603211	1434.389548101	228.613309952271	1998.64307905175	669.18241116844	141.004650252251	1299.54304024441	1004.89624359119	162.112160371292	1433.91477252766	1064.91239495135	130.013077025505	2416.55436102794	1048.10124222364	151	1584.60792202221	623.03972468912	128	1137.8098782853	1138.55152663813	171.244642811461	1598.0103629131	864.646096396467	141.502723184971	1545.77814113253	1486.6401987314	186.220080274945	2146.64977484348	1293.35361850214	139.158656149943	2330.98965744129	779.978509201738	150.420590658012	1101.81871701567	624.178029600858	128.540001634897	1401.82288760126	941.476461074585	139.142238939629	1859.61572744835	340.95927654881	127	882.504490760756	665.511468908488	181.010702196451	1104.94190810689
289.916188834427	141.001327222897	585.198598613506	1436.44558997118	228.831332954842	2002.75085892009	669.260634367609	141.001327222897	1301.14231767283	1004.97542572809	162.114159236662	1435.17893846149	1065.17906589498	130.028429474207	2419.64006867415	1048.8740588234	151	1587.2991421701	623.330807579512	128	1139.98730796163	1139.08980275858	171.298710487042	1600.33762128686	864.991689950292	141.590723563449	1547.65401850042	1486.96633534012	186.284044601976	2148.97793241507	1293.89299822716	139.226741810419	2333.96108068551	780.252540086779	150.443831533852	1102.90859348111	624.754910466931	128.523173815352	1403.81297302946	942.121099944147	139.15462082999	1860.74002696721	341.036073198939	127	882.931373232939	666.28465082755	181.036073198939	1106.12405159223
290.013940150143	141	585.947545587396	1438.21945324545	229.044200279029	2006.52597940692	669.214446564066	141	1302.37850823148	1004.83730427412	162.118547631051	1436.05009425035	1065.37799472775	130.053800476695	2422.27043385794	1049.43207753339	151	1589.56120783237	623.597813603242	128	1141.92057981014	1139.45298196221	171.339416782778	1602.21809543866	865.300521963604	141.667149762489	1549.59345339533	1487.20053132773	186.340097714618	2151.37666214	1294.44833295582	139.298181430295	2337.26612512706	780.492841347902	150.490441556268	1104.11143789265	625.323710077613	128.507012900678	1405.46816621973	942.735003138413	139.162239137273	1861.5628917367	341.113909796654	127	883.295533705751	667.015689575505	181.059829703219	1107.14230775692
290.070975742814	141	586.519251078232	1439.70063035449	229.246766152049	2009.78096440195	669.043788264219	141	1303.13929657799	1004.50528206291	162.11978694057	1436.44592794394	1065.45779859611	130.089586400323	2424.22216839283	1049.70501750783	151	1591.2130154736	623.812132891582	128	1143.47187186976	1139.59502474332	171.36398175303	1603.54564277842	865.565406682236	141.726315689323	1551.53352857415	1487.33297297961	186.388208973987	2153.80346791995	1294.9573616773	139.364429752031	2340.84125813866	780.665750740616	150.55239216634	1105.43699518446	625.884420064842	128.487644790788	1406.85791057839	943.331074205554	139.164807348377	1862.21281277813	341.196033854103	127	883.618953402564	667.700853911009	181.082403674188	1108.0542730875
290.094842878148	141	586.895360853527	1440.92964970346	229.436734821211	2012.4414111194	668.76856910045	141	1303.37704426589	1004.04015555756	162.113897378801	1436.36656548321	1065.38536706889	130.134876927986	2425.36470783451	1049.66167711588	151	1592.13815680564	623.952611331032	128	1144.54906356472	1139.50657020193	171.373618584445	1604.28678627899	865.780602487187	141.762454083964	1553.38631840269	1487.35845124473	186.425160641774	2156.17321706564	1295.34320865026	139.415930895197	2344.49247251088	780.736629227128	150.617942224447	1106.83493810217	626.433901024267	128.460426129789	1408.10705953773	943.920734441793	139.162239137273	1862.86756008741	341.284822088276	127	883.943962231567	668.339921270757	181.102409434054	1108.94888919327
290.096431958906	141	587.083786941314	1441.97777482696	229.615736532702	2014.54278747148	668.423913450152	141	1303.12176170589	1003.52570959638	162.101082211157	1435.89293873842	1065.16442341843	130.186018359229	2425.68892417794	1049.33045130219	151	1592.31711766641	624.018860660193	128	1145.12206467043	1139.22725901199	171.3736357399	1604.4886512847	865.948893302622	141.775443196091	1555.05716823249	1487.29101072035	186.450125455954	2158.378678452	1295.53955858328	139.446271321395	2347.93657596289	780.681236969901	150.677422515566	1108.20709891403	626.963835191717	128.423834173925	1409.35925240861	944.510614505739	139.155948052887	1863.70457945302	341.379613215047	127	884.314775888337	668.934078494613	181.119874853948	1109.91919455804
290.087053926439	141	587.120785178196	1442.9262393988	229.788539880359	2016.22783376618	668.05325630232	141	1302.4828049249	1003.04905040753	162.083730897085	1435.17300838856	1064.83477021194	130.237024504179	2425.31018091076	1048.79298284782	151	1591.83778612211	624.02915293409	128	1145.23339806178	1138.837840894	171.37162963362	1604.27331145392	866.080850739414	141.767560331173	1556.45345484918	1487.15684922339	186.462994340893	2160.30221224411	1295.50279903478	139.452437371419	2350.84838904461	780.493677490327	150.723347634291	1109.42678033373	627.461538556493	128.378268836696	1410.76052304558	945.0955199449	139.14688919188	1864.87584993282	341.475498961751	127	884.773461540605	669.483990555552	181.136186995429	1111.05041837783
290.078884203872	141	587.066768737402	1443.85102499252	229.960048522515	2017.71529900488	667.701818806918	141	1301.63459645865	1002.68587655385	162.065807178367	1434.39821855233	1064.46341678057	130.280698854946	2424.453459574	1048.17047862099	151	1590.88695411685	624.017198221008	128.001327222897	1144.99216141243	1138.44410848052	171.374545578137	1603.82311144105	866.193297260737	141.744279028403	1557.51397925407	1486.99488567029	186.46507638204	2161.85677426177	1295.22511601971	139.435319684936	2352.9535710112	780.188885690262	150.752962700722	1110.37444508026	627.915028223778	128.328187567406	1412.42973656097	945.664661928943	139.137396984017	1866.47731031488	341.566067551333	127	885.35033197876	669.991280699532	181.155403878512	1112.40055942342
290.082229950902	141	586.995287292569	1444.80688442881	230.134876927986	2019.25098212383	667.410890975508	141	1300.78307764106	1002.48742903901	162.053800476695	1433.76714165564	1064.13342204409	130.311525654686	2423.4138939785	1047.60052478752	151	1589.71972165283	624.026770231878	128.004650252251	1144.55831837076	1138.15782593549	171.388029688479	1603.35042959332	866.30869561935	141.711979291555	1558.22898606418	1486.85265329797	186.458907203531	2163.01435865923	1294.74083623254	139.399263641452	2354.1035840017	779.803787456694	150.765953491537	1110.97397321365	628.316785260997	128.280376983713	1414.43991268079	946.204215105093	139.129511685363	1868.52934251328	341.643912015134	127	886.054174279821	670.457517692221	181.183312162058	1113.98891832383
290.106009172858	141	586.982891795257	1445.82304309158	230.315556237037	2021.06728552733	667.20903188049	141	1300.13549190052	1002.47653117181	162.052208696163	1433.45898333331	1063.92348689188	130.326601615134	2422.509610038	1047.21106460087	151.001327222897	1588.62211563583	624.099649675162	128.013077025505	1144.11819574125	1138.07874864308	171.415142239611	1603.07369608603	866.447718705858	141.678489780486	1558.64007038275	1486.77101718761	186.448307775977	2163.81017507432	1294.11458224833	139.350825707606	2354.31640641506	779.38603082311	150.766494966138	1111.21055163956	628.663642744237	128.244062003337	1416.80870663249	946.699117362493	139.125781571172	1870.97876802495	341.701297157848	127	886.873481294015	670.884783043193	181.225790551206	1115.79541551141
290.155136679626	141	587.096489486649	1446.89800337707	230.500957877618	2023.34186994537	667.110489650164	141	1299.86700680057	1002.64622222845	162.064223056406	1433.61074209579	1063.89216027573	130.326598486648	2422.03572917154	1047.1001492725	151.004650252251	1587.86996387508	624.267459891759	128.028429474207	1143.85673382357	1138.27349489465	171.455848535347	1603.18818016498	866.6269817038	141.649710204774	1558.84375182792	1486.78338559295	186.43744711181	2164.35359289768	1293.4349707518	139.297116065259	2353.79543593841	778.988959250435	150.757630108427	1111.14445255564	628.963204075425	128.226995802193	1419.50087139276	947.145998659534	139.126964104483	1873.71172000045	341.734719744901	127	887.777394546187	671.278327035179	181.286947477323	1117.76478161894
290.231768026354	141	587.381967155349	1448.00378728631	230.6887415442	2026.16080745918	667.112107830657	141	1300.08812860374	1002.96427294179	162.09091362322	1434.29197905718	1064.06670486072	130.31622787951	2422.23555291331	1047.32036433312	151.011749802608	1587.70224303275	624.54564112441	128.052473253798	1143.93837392441	1138.76988602606	171.507368630048	1603.85423577616	866.853906136553	141.631031667806	1558.97239566928	1486.90657336875	186.429368071968	2164.80639196338	1292.79669107559	139.244207230313	2352.90048417823	778.659805168246	150.743513910331	1110.903068951	629.23116426334	128.236235848593	1422.43615014805	947.55190250915	139.134876927986	1876.57663098046	341.743781109217	127	888.720590848311	671.648155182547	181.367596213553	1119.81746952883
290.334177460407	141	587.857703149886	1449.09771050353	230.874790833475	2029.51384972676	667.19351973545	141	1300.83093472167	1003.3800706262	162.129104600526	1435.50418393121	1064.43688141722	130.302854400222	2423.24828577122	1047.86873336015	151.025106444853	1588.27612282327	624.928515080398	128.084936148072	1144.47313019812	1139.54807384742	171.565207333984	1605.16241287151	867.125939783482	141.624422104905	1559.17239710207	1487.14122727369	186.427981165965	2165.35194225369	1292.28321062847	139.196039416324	2352.08105807012	778.434919382064	150.726569681097	1110.65594169645	629.487986745566	128.272898562381	1425.5060415282	947.936476931607	139.148640655069	1879.41536900052	341.732529225795	127	889.652445111961	672.007820376109	181.463222140223	1121.86620229548
290.457170196022	141	588.514178844199	1450.13425463646	231.056056241128	2033.30105835766	667.324672904264	141	1302.04901002532	1003.83485101789	162.175316162778	1437.1785198108	1064.95869806535	130.292548988786	2425.1176551177	1048.69054842773	151.045373703441	1589.66232429824	625.390393176678	128.123127125378	1145.51454124685	1140.54423595769	171.625583249405	1607.13418198987	867.430845480638	141.629592772821	1559.57217811481	1487.46965339386	186.434248491641	2166.15340827716	1291.95266929814	139.154076655615	2351.78204541213	778.331110609552	150.708222984919	1110.57800387712	629.756995113384	128.332308762909	1428.59355188233	948.326741027532	139.166370632599	1882.09083697179	341.708656262201	127	890.525734763773	672.373615677156	181.566329409194	1123.82968457319
290.594758883401	141	589.31330279727	1451.07754737114	231.229924953821	2037.3482342099	667.469366483025	141	1303.62161075338	1004.26980735917	162.224730527196	1439.18462464017	1065.56784109993	130.291514553796	2427.76042564736	1049.6901692699	151.074233951621	1591.81505174902	625.890926596737	128.162239137273	1147.040335129	1141.66241677919	171.685412952625	1609.69511936732	867.750001490691	141.642411068951	1560.27062131141	1487.8619881387	186.449437782917	2167.33043392877	1291.82992956742	139.118809488912	2352.36336488408	778.347704184403	150.6887415442	1110.81463641806	630.059943009153	128.404609028846	1431.59341223949	948.754832844498	139.18426689604	1884.51368004104	341.683140032737	127	891.305868047156	672.763498586366	181.66602768728	1125.64859725268
290.737629910783	141	590.193600352006	1451.90745878941	231.393981301448	2041.43491597428	667.589985410672	141	1305.37396969601	1004.63059486511	162.273342405525	1441.34400019265	1066.19124284642	130.301501759875	2430.99035548524	1050.74380009496	151.110833148395	1594.57772264665	626.381814903438	128.196301052989	1148.95847433278	1142.78873625173	171.742186687434	1612.68430637951	868.062013366693	141.655775923566	1561.31204297721	1488.27962658465	186.471504289925	2168.92294533835	1291.90367104013	139.089708372233	2354.01578877238	778.465703034301	150.667525726174	1111.44559874867	630.409800217917	128.477110538989	1434.42020042056	949.241923076913	139.197628275886	1886.6420206103	341.666110259633	127	891.972589650784	673.189110351698	181.751757449735	1127.28769235542
290.8760898261	141.001327222897	591.081839244698	1452.62420691056	231.548690044816	2045.33665043529	667.656533204376	141.001327222897	1307.10855510346	1004.87708084357	162.318708380821	1443.45875064809	1066.76271279337	130.32125332045	2434.53283396967	1051.7237033948	151.153555464955	1597.69139291384	626.816043564745	128.220869151727	1151.11641093478	1143.81130149562	171.794136584649	1615.86416481713	868.346775931973	141.662943798111	1562.68548367588	1488.6823199488	186.49552535184	2170.88920474409	1292.13201883753	139.067134401264	2356.7283176871	778.652081974915	150.645042797069	1112.47177629998	630.811274792285	128.53772911899	1437.01476948497	949.799274946245	139.202164422313	1888.47950234798	341.667887915267	127	892.521126329379	673.655870913772	181.815889671792	1128.73687556837
291.000173723287	141.004650252251	591.89802961706	1453.24222087999	231.692608747929	2048.84167575751	667.646276085956	141.004650252251	1308.62496476214	1004.98325011947	162.359069109067	1445.32500442854	1067.23090085366	130.345722718753	2438.06170204891	1052.51668092774	151.198833526873	1600.82549216091	627.155977500691	128.232445009852	1153.32107702953	1144.63801732831	171.837384899043	1618.94956174036	868.591293362789	141.659194732384	1564.3218889383	1489.03743721609	186.518073130364	2173.10441522635	1292.45549925492	139.053800476695	2360.27941106084	778.868321692183	150.622615194374	1113.81022668287	631.26056001992	128.576869002018	1439.35121347865	950.423262007783	139.196301052989	1890.07150017956	341.696229476095	127	892.963970715176	674.161750728651	181.856613122982	1130.01176519961
291.101255934443	141.011749802608	592.569979862415	1453.78703480634	231.823787388299	2051.78663696234	667.549566814175	141.011749802608	1309.75275244722	1004.93969132613	162.395396437723	1446.76475314194	1067.56264329115	130.368561247357	2441.23375398623	1053.03598519829	151.241586843051	1603.61529586252	627.377693800596	128.231291731438	1155.3615838973	1145.20598136623	171.867035702693	1621.64391272554	868.788861889535	141.643367840759	1566.09209770705	1489.32035167552	186.53440506855	2175.36332147945	1292.80702352067	139.052208696163	2364.25515400147	779.072570164597	150.60370441358	1115.29802113578	631.744099742895	128.5898319217	1441.41709900575	951.093427204091	139.179616643789	1891.46404599749	341.755177903031	127	893.316024504979	674.69355153763	181.874762603203	1131.13320140376
291.174800313142	141.025106444853	593.047327172082	1454.29896858415	231.941549271054	2054.07867061257	667.371793846343	141.025106444853	1310.37655993641	1004.76039462487	162.429020338555	1447.64709740712	1067.74094763734	130.381868979481	2443.73334645067	1053.23160103068	151.276136516073	1605.71267943373	627.472041350262	128.220080274945	1157.04335750017	1145.4869745557	171.877046597908	1623.6833730975	868.943439184058	141.618540805131	1567.82903600682	1489.5197270747	186.541222964341	2177.41011843634	1293.12848991788	139.064223056406	2368.12359113256	779.229487992429	150.591785266147	1116.71962507589	632.242081841267	128.578192750146	1443.21035672383	951.776612340088	139.15462082999	1892.68968907194	341.843878223826	127	893.590444295678	675.231454113869	181.876540258837	1132.12040171108
291.219280070968	141.045373703441	593.304168236073	1454.81772311662	232.043792488769	2055.69488958681	667.131020893542	141.045373703441	1310.44367349994	1004.47383517473	162.460949486373	1447.89852781844	1067.7602557068	130.381114161231	2445.30205386047	1053.08873143231	151.297383264146	1606.82838894043	627.445332287664	128.202962588463	1158.20851595387	1145.48450412056	171.861807549608	1624.86814034649	869.065553186592	141.590735981302	1569.33704685019	1489.63519982571	186.537721252903	2178.95725203611	1293.37608977559	139.089586400323	2371.3005560207	779.310847119373	150.590997839164	1117.83135276496	632.729988820182	128.547480056228	1444.72601010052	952.429075109341	139.124861433113	1893.74289525364	341.95569356148	127	893.793717430927	675.748405499289	181.868375343444	1132.97933360515
291.239456646831	141.072906728724	593.346520388383	1455.38494669972	232.128353378579	2056.68530250526	666.8584359612	141.072906728724	1309.97341341315	1004.1202528598	162.491820530542	1447.50354701793	1067.62262886306	130.363102529134	2445.7571258657	1052.62283330762	151.301945603018	1606.75028431753	627.316590581654	128.184284051494	1158.75494170759	1145.23199404289	171.818966320051	1625.08880388643	869.163995803544	141.565224489439	1570.41302064963	1489.66785922658	186.522396329051	2179.72453555723	1293.5283068914	139.125781571172	2373.25153437334	779.302951517358	150.601818879039	1118.40318089236	633.182566547175	128.507275154448	1445.94224215352	953.005706824561	139.094153476797	1894.56083109731	342.079835463085	127	893.913769468328	676.214762893879	181.855106614577	1133.68923471971
291.243409064164	141.106182896145	593.21100955876	1456.0349961928	232.193558693817	2057.16514710887	666.596381822295	141.106182896145	1309.05689809308	1003.73944091733	162.520003741119	1446.50043192024	1067.33447488975	130.329675134907	2444.99913480122	1051.87039368103	151.288951683717	1605.35251865333	627.11289127209	128.167339822261	1158.64031522283	1144.79103182326	171.748226213781	1624.34201093263	869.243050382224	141.545864954596	1570.86753622168	1489.62587165841	186.493824203086	2179.48271984016	1293.58883159182	139.166889389524	2373.57280776766	779.213742546534	150.622644449271	1118.26037423423	633.578110443831	128.467872392473	1446.82004743515	953.465346088329	139.065807178367	1895.03316304615	342.201495479614	127	893.924392101713	676.60192899931	181.839401694862	1134.20423662577
291.241936614291	141.141805662347	592.953363894209	1456.78490980076	232.237975763391	2057.28228613736	666.392753260924	141.141805662347	1307.83716976722	1003.35761996305	162.541590494459	1444.95774637926	1066.90388553796	130.284044601976	2443.00571348586	1050.88134911545	151.26026538002	1602.59736531379	626.862954779769	128.153555464955	1157.87274732169	1144.24908079616	171.653007371949	1622.72630466656	869.296797997816	141.53492361796	1570.55116710694	1489.51981996502	186.450039221264	2178.11263032919	1293.58529577527	139.208050855597	2372.07951847883	779.076058306272	150.64882099676	1117.33003561624	633.907031894622	128.438400270907	1447.34763390771	953.789641404717	139.042050674087	1895.0907805966	342.307306245983	127	893.808775112024	676.885532392274	181.821360807868	1134.46728369888
291.246224026133	141.175054304917	592.643348296431	1457.62679791705	232.259736461215	2057.20924010362	666.29691950281	141.175054304917	1306.50182168725	1002.98088859063	162.551233859556	1442.97480286154	1066.33797429551	130.231830077553	2439.85045202049	1049.71048071929	151.220080274945	1598.5486687583	626.586887925574	128.142326853007	1156.50715242186	1143.70985806046	171.536940242208	1620.44321114851	869.306988180346	141.530906278083	1569.37116648175	1489.36781762726	186.387425925465	2175.64524535698	1293.56669548721	139.244648373683	2368.83638722765	778.95195558428	150.672341489341	1115.66891733128	634.189569777166	128.423296855182	1447.57568895663	954.012437938609	139.023779221956	1894.79228334497	342.391483089681	127	893.585199308647	677.054376285274	181.799663627059	1134.43560469913
291.266514002396	141.202190614758	592.346544096099	1458.53263808168	232.258160621197	2057.0955045476	666.354568131845	141.200863391861	1305.24662822136	1002.60172548818	162.543620359448	1440.6659005833	1065.6491758961	130.178639192132	2435.69433610371	1048.4258456908	151.173988939881	1593.38771407238	626.291902322573	128.131536743178	1154.62117364543	1143.28511124028	171.402498757427	1617.76761443872	869.249325267201	141.531692026379	1567.31589386736	1489.20340046189	186.300198054543	2172.2860992944	1293.59420972626	139.273168461042	2364.16653171081	778.927143025132	150.686748437517	1113.47376296965	634.482460243134	128.423678647126	1447.65742088703	954.235060520647	139.011749802608	1894.40896667296	342.462413088068	127	893.328790876285	677.114476619112	181.773258189581	1134.10698095461
291.308971761321	141.219629842208	592.114975668892	1459.45338933247	232.235413064884	2057.05062766993	666.59843696774	141.214979589957	1304.25087642779	1002.20860498171	162.516222550884	1438.17371948775	1064.85955689791	130.129104600526	2430.79269477846	1047.10856419239	151.127777377629	1587.43278184747	625.966463030916	128.119874853948	1152.30934056003	1143.07892853467	171.251480503957	1615.01330929263	869.104205535826	141.533579239609	1564.46494150878	1489.08259122298	186.183807756578	2168.40497328935	1293.73122592515	139.292448657554	2358.59436610753	779.098904797895	150.685133939309	1111.0568395879	634.888375533846	128.433670590806	1447.89615279099	954.642272424718	139.004650252251	1894.50733701464	342.546587799472	127	893.200507703462	677.094583512964	181.743498792704	1133.55724913443
291.375216954571	141.226729392565	591.976812410944	1460.32487068331	232.193218892134	2057.12041457185	667.038549490652	141.214979589957	1303.64574635158	1001.80265593429	162.468316235617	1435.67437566932	1064.00472157509	130.086263370969	2425.48690920379	1045.85945370324	151.086263370969	1581.14170008037	625.582627534086	128.107059686304	1149.67032711228	1143.16249071301	171.082027710504	1612.48622283641	868.86358944223	141.535452674707	1560.99492228914	1489.07939131477	186.03464272384	2164.48864523711	1294.02721688514	139.30381117203	2352.76892526918	779.555313824187	150.664879146467	1108.79882073125	635.551634931473	128.447071525371	1448.72384689603	955.496271216501	139.001327222897	1895.90394522488	342.690187220249	127	893.438644945149	677.05249442095	181.714200460066	1132.95619715901
291.463059757792	141.224642613818	591.934409379769	1461.07700003666	232.136261464482	2057.28305383684	667.66018874261	141.200863391861	1303.49168481937	1001.41427114372	162.404347170985	1433.37806085605	1063.13960263092	130.052473253798	2420.17622317025	1044.79488263929	151.052473253798	1575.06928283255	625.106483895157	128.094153476796	1146.8040370741	1143.5644011452	170.891359099024	1610.43537005543	868.537066245324	141.53608002486	1557.15302482128	1489.27971451656	185.850185215097	2161.04068350464	1294.50350889469	139.310022274767	2347.33488416672	780.357227040304	150.625728476382	1107.07329132842	636.635936873761	128.456022258634	1450.63571535545	957.094466750872	139	1899.51541539071	342.954695975217	127	894.319604806341	677.069895810781	181.690866933246	1132.55811381255
291.565295247362	141.215777756107	591.968517794987	1461.64628198083	232.066667395716	2057.47012552853	668.420098142352	141.175054304917	1303.77682739513	1001.10158550358	162.329936992768	1431.51790755523	1062.32795118316	130.028429474207	2415.25327317847	1044.02645414435	151.028429474207	1569.77401947261	624.50504156328	128.084936148072	1143.80344062871	1144.25732144732	170.675833434808	1609.00690855542	868.148538681919	141.537576025927	1553.22735942496	1489.75607955845	185.632947960822	2158.48386046946	1295.13739175833	139.314581485154	2342.82834218313	781.518767142882	150.57152383582	1106.17165359577	638.287922836458	128.454112327728	1454.08904041772	959.702206141257	139	1906.1440251613	343.401517271323	127	896.100187461795	677.243056506146	181.679287946635	1132.66469752444
291.673389095498	141.202962588463	592.050666466045	1461.98251256005	231.986401783834	2057.60181562064	669.256413924482	141.141805662347	1304.43003261584	1000.9431135093	162.253966033639	1430.32649871285	1061.63249786671	130.013077025505	2411.04762574457	1043.63906318555	151.013077025505	1565.71846298616	623.759374667144	128.08144690238	1140.75254240877	1145.1613606902	170.432787211052	1608.22108421181	867.733251846795	141.543083795752	1549.48865556439	1490.54451671566	185.389274339023	2157.04669959732	1295.86043596214	139.322655787395	2339.55835560181	782.995475393066	150.506227548291	1106.22893786497	640.600142175616	128.436646907833	1459.38876060839	963.482149984761	139	1916.24364212321	344.079749408329	127	898.952349303963	677.662857764156	181.683912006441	1133.56396614641
291.779310133781	141.188586570333	592.154753294074	1462.05797146921	231.895070647858	2057.61603048079	670.09792109066	141.106182896144	1305.34549416955	1001.02057387917	162.185067100016	1429.99563153414	1061.10554086066	130.004650252251	2407.78848877583	1043.67339070366	151.004650252251	1563.18791549148	622.875299586315	128.084936148072	1137.73994060162	1146.16247880068	170.163833559056	1607.98446457719	867.328311513816	141.556947901958	1546.1649027607	1491.62236820186	185.129776242999	2156.72220881691	1296.56520339064	139.337932992049	2337.58506110389	784.686495300962	150.436119888913	1107.19306142677	643.576664633762	128.40356616029	1466.57948050707	968.426523425392	139	1929.72306195961	345.007430343361	127	902.902710791841	678.394163225938	181.70648597741	1135.45429219395
291.874762603203	141.173988939881	592.266954006314	1461.86670936387	231.79184325095	2057.49558372161	670.874385721216	141.072906728724	1306.4076149599	1001.39165617848	162.130030234773	1430.63748251143	1060.77779410462	130.001327222897	2405.56027871092	1044.11138374348	151.001327222897	1562.22684583112	621.887862503373	128.094153476796	1134.85507461816	1147.13181040525	169.875667623635	1608.10801869929	866.967404928066	141.580704406238	1543.40137151461	1492.90214462475	184.869246305344	2157.25330265545	1297.1277390232	139.363016719226	2336.7218258313	786.448749547665	150.365470824506	1108.8316467902	647.110903202255	128.357474825226	1475.3847437742	974.322593462346	138.998672777103	1945.85593698594	346.163622036821	127	907.802344761449	679.453193049859	181.744296958853	1138.37827221346
291.952516025141	141.159271082241	592.38799650246	1461.42209042624	231.677777489888	2057.26907984539	671.526576124054	141.045373703441	1307.51032054981	1002.06723595139	162.09425937025	1432.24435931095	1060.65335623244	130.001327222897	2404.30989326561	1044.87896064251	151	1562.64759295772	620.86191194133	128.105732463407	1132.19820170328	1147.94907990083	169.581607388843	1608.36013646036	866.676410849631	141.61478527349	1541.25900488411	1494.24451891887	184.623043130631	2158.20255401819	1297.44042936402	139.397680294486	2336.61626637634	788.122604836529	150.298964478817	1110.78298496774	650.994896270681	128.302831682546	1485.22047776856	980.763102289948	138.995349747749	1963.34120998385	347.486145093173	127	913.335829473141	680.797784004146	181.792734892699	1142.19103531898
292.007552890384	141.143566162526	592.526318966461	1460.75533767574	231.554673082185	2056.9910120203	672.011788706546	141.025106444853	1308.56010633204	1003.00003232841	162.077579698651	1434.66921365757	1060.71182855498	130.004650252251	2403.87703645671	1045.85726044785	151	1564.082062061	619.882473030612	128.115224601697	1129.88072587829	1148.52519927671	169.300117978427	1608.52341971927	866.469843681885	141.655337908682	1539.71909105865	1495.4821957982	184.405321385087	2159.05387570171	1297.44022606743	139.439442918267	2336.84948445527	789.561739147371	150.238067372735	1112.63879101783	654.944976523632	128.245446539832	1495.27157552512	987.204029720391	138.988250197392	1980.50056533684	348.881705112155	127	919.06672309493	682.327154289619	181.844689597087	1146.5665178036
292.035796489489	141.126974404306	592.687152882004	1459.90971046321	231.42741906114	2056.70502305817	672.304343473966	141.011749802608	1309.4666296996	1004.084776249	162.078884203872	1437.62082316897	1060.90803940853	130.011749802608	2404.02006278139	1046.90096604311	151	1566.05926353387	619.037610649293	128.118459717673	1128.00541321833	1148.81072657788	169.050562523003	1608.42828643164	866.351791038418	141.697800405207	1538.70249117493	1496.4545615864	184.226944050817	2159.3304068081	1297.12335800223	139.483772074463	2337.04367547944	790.659853076913	150.184377527094	1114.03201959694	658.647405293935	128.190149854555	1504.63495573017	993.052682033004	138.976220778044	1995.58173069839	350.239503201296	127	924.512616593257	683.896234332417	181.893469370443	1151.05009956163
292.036317680149	141.110382715658	592.863634637318	1458.94078335887	231.303614731068	2056.42314258726	672.399207407119	141.004650252251	1310.13722848536	1005.18415675368	162.093031401587	1440.71033059385	1061.18529834354	130.023779221956	2404.45957654492	1047.86661640001	151	1568.10029495533	618.402139863094	128.1138973788	1126.64692938414	1148.79976790326	168.852781291996	1607.97752164329	866.317275446211	141.736194094659	1538.08876877296	1497.03982516227	184.092242746001	2158.68994047664	1296.54720793983	139.524151267009	2336.9295264727	791.363428559881	150.137938458618	1114.70603193516	661.816089486184	128.142588710868	1512.478085181	997.779705814222	138.95927654881	2007.08370800275	351.455791796862	127	929.23140306726	685.345008351385	181.934170103957	1155.14494197028
292.010601865219	141.095480699693	593.032184333731	1457.91779651775	231.190523384503	2056.10733033881	672.305664780286	141.001327222897	1310.47169291959	1006.15717102769	162.115486459559	1443.50981946693	1061.48159401493	130.04072345119	2404.92599191107	1048.6380394382	151	1569.80813659096	618.020440499861	128.101082211157	1125.83188417093	1148.52384917393	168.71975494349	1607.15075584731	866.355842871387	141.767280714434	1537.73904487505	1497.17462049561	184.001930985911	2156.97566086835	1295.80979690258	139.555884111807	2336.36912431064	791.676687781836	150.098803729047	1114.54994207175	664.237696351727	128.104781204195	1518.18430639165	1001.00885333331	138.938843073884	2014.03075508058	352.448396530507	127	932.895529556667	686.52548334685	181.964470975436	1158.40721842886
291.964359303348	141.086263370969	593.153164758751	1456.9179049208	231.095581030925	2055.67276018246	672.04808449366	141	1310.365503111	1006.89638123989	162.142326853007	1445.62939122566	1061.74418516935	130.061156926116	2405.18041184044	1049.14553981371	151	1570.92205628245	617.900145339382	128.082403674188	1125.52023214828	1148.03778794862	168.658598017374	1605.98023963357	866.452283628845	141.787913824451	1537.5087172826	1496.8618263262	183.95185804819	2154.20866909758	1295.02224135128	139.575463835299	2335.32522181858	791.647111100975	150.067134401264	1113.58688525579	665.801067577859	128.078884203872	1521.43215209886	1002.57641731942	138.917596325812	2016.10110635438	353.17032551476	127	935.331025378705	687.329187845913	181.983599945141	1160.51838882825
291.905846523204	141.08609715463	593.184218933872	1456.01045386973	231.02351202307	2055.01320460487	671.65607650219	141	1309.73108511849	1007.34744129663	162.170932971471	1446.79305247271	1061.94204923514	130.082403674188	2405.04054140997	1049.38331477845	151	1571.34183979096	618.016600495082	128.061156926116	1125.60981631094	1147.41247378994	168.668497240502	1604.52617426246	866.588676272554	141.797581585912	1537.27280468574	1496.15865960764	183.935979183991	2150.55512481456	1294.28049334466	139.58353813754	2333.83367671335	791.349414068896	150.042050674087	1111.94552304429	666.503599308546	128.065829896043	1522.21591360706	1002.5379180987	138.898917788843	2013.62104417122	353.61224256684	127	936.525158040516	687.703575608549	181.994022524852	1161.33343960551
291.843644862275	141.09668595068	593.085314873594	1455.23870907122	230.973843041701	2054.01798980956	671.160631701284	141	1308.5077767161	1007.51321671512	162.198833526873	1446.87336202878	1062.06835491794	130.101082211157	2404.3891138265	1049.3983712796	151	1571.11002212115	618.319658087194	128.04072345119	1125.94996869203	1146.7129435352	168.741417038396	1602.84853388184	866.748833687924	141.797351020775	1536.93267328264	1495.16462182724	183.947073406175	2146.25305187134	1293.64903324124	139.583794829089	2331.94459454266	790.866305461745	150.023779221956	1109.80460813554	666.436630896576	128.064502673146	1520.78208654856	1001.13515943511	138.8861026212	2007.39844785619	353.799171623157	127	936.595084574296	687.6571494315	181.998672777103	1160.87818962471
291.786749155556	141.117932698753	592.830471294748	1454.60553486435	230.944029993562	2052.59443240151	670.586834698241	141	1306.68031721719	1007.43798345565	162.225536559432	1445.89212494934	1062.13737834634	130.115224601697	2403.1726869965	1049.27215801264	151	1570.35751490217	618.749733990655	128.023779221956	1126.37289490188	1145.99093303835	168.863998089514	1600.98893661377	866.910162045178	141.790626659107	1536.42006845472	1493.9839568757	183.979022350699	2141.54859277349	1293.15237741238	139.582029591308	2329.6995897038	790.273618452589	150.013077025505	1107.34716123606	665.752463838651	128.074233951621	1517.54979414933	998.724574336484	138.881540282327	1998.50721698367	353.778513382529	127	935.743732542966	687.249008604024	182.001327222897	1159.32114213515
291.741231953453	141.146455914597	592.415353425362	1454.07551019786	230.931000470914	2050.68968334229	669.958163188369	141	1304.29231195575	1007.18550031095	162.249293063712	1443.99233890956	1062.17632350699	130.123109969924	2401.38399841097	1049.09334517308	151	1569.23910885661	619.247637868997	128.011749802608	1126.71584337917	1145.27754215637	169.019054500653	1598.9656427394	867.04462313281	141.780199341795	1535.70249600228	1492.70633135684	184.02643366775	2136.65349688842	1292.77725221129	139.584353459144	2327.12235603073	789.63205833242	150.009300504501	1104.72961142295	664.630382115275	128.093031401587	1512.99408276827	995.695324594581	138.8861026212	1988.03230164465	353.607225921285	127	934.197277769278	686.572802872673	182.005977475148	1156.91415573161
291.709995902952	141.176381527814	591.849315088198	1453.58417140427	230.937738276907	2048.26982499059	669.295656774606	141	1301.43061688032	1006.81409514281	162.269207781713	1441.37303507686	1062.21030514176	130.125647181409	2399.05583461684	1048.92934594356	151	1567.89451406839	619.761366067286	128.004650252251	1126.84880824225	1144.57870057766	169.188136137596	1596.77897495876	867.123349406747	141.76940610348	1534.78139275221	1491.38933596983	184.082751407601	2131.72670736728	1292.48830908001	139.593967572883	2324.23335412919	788.981710213439	150.013077025505	1102.06720675702	663.248760200076	128.118809488912	1507.5982692712	992.410262739947	138.898917788843	1976.94499689408	353.342609133497	127	932.182906883223	685.736693465951	182.017727277756	1153.93953914783
291.691652681542	141.200863391861	591.160210924786	1453.05149069913	230.977660654658	2045.32952616646	668.619793558975	141	1298.22235004869	1006.36263822336	162.285371824873	1438.25066560337	1062.25740028023	130.124861433113	2396.25890071799	1048.81515628283	151	1566.43100887715	620.250265357129	128.001327222897	1126.69111976618	1143.87891019659	169.353889938011	1594.42634190934	867.120927829955	141.761648272924	1533.69629349636	1490.05751267684	184.143560600305	2126.89054088243	1292.2425261256	139.611697550413	2321.07325208154	788.345927263016	150.023779221956	1099.44175070175	661.768829820083	128.150753626262	1501.79845445378	989.167868268784	138.917596325812	1966.00761833923	353.033512228745	127	929.903425106841	684.846788389708	182.042833722609	1150.66750563685
291.684016822897	141.214979589957	590.382582722185	1452.41602991034	231.075143800028	2041.8786587397	667.95716252142	141	1294.81008125692	1005.85604289969	162.296947682998	1434.81599097409	1062.32918633038	130.123127125378	2393.09220246128	1048.75891339731	151	1564.92857245851	620.690360711317	128	1126.21317905809	1143.15225562864	169.499996081369	1591.91285339756	867.023420344133	141.759226430094	1532.51566815162	1488.71609512172	184.20261485505	2122.24064678455	1292.00208688343	139.632416204301	2317.71492251712	787.735657483144	150.04072345119	1096.90995901327	660.321076730622	128.188939865967	1495.95878213571	986.179689728915	138.938843073884	1955.74915662148	352.719016790713	127	927.525000281768	683.99331232651	182.086880203152	1147.32385416941
291.683757002862	141.214979589957	589.556147697982	1451.64096750027	231.259847146698	2037.95466829441	667.337262331206	141	1291.33910637162	1005.30817866926	162.304198460162	1431.23089749936	1062.43168224646	130.122313852232	2389.68259876443	1048.74722055304	151	1563.45274844501	621.071001367779	128	1125.43766048662	1142.37295912171	169.613893460169	1589.26894788587	866.83716301629	141.762975495821	1531.33754950813	1487.37368486292	184.25437581825	2117.88608708052	1291.74783361974	139.64804351046	2314.27303563743	787.158560681797	150.061156926116	1094.52387272415	659.008298934853	128.233505033862	1490.37868830686	983.58272576653	138.95927654881	1946.5186576496	352.428584928978	127	925.185665542806	683.247641254664	182.155136679626	1144.08388634042
291.689789150357	141.202190614758	588.718553674084	1450.72652771876	231.557403344872	2033.63152899291	666.788966430154	141	1287.94192832548	1004.7360176707	162.308461424281	1427.63037198685	1062.56823644966	130.123127125378	2386.17574137487	1048.75997183254	151	1562.06780361036	621.395885242253	128	1124.42639197577	1141.52708079192	169.687329245641	1586.55349166126	866.587382623593	141.774056355731	1530.27066729368	1486.05651399452	184.294841245487	2113.95226949461	1291.47887546107	139.651082323415	2310.88920776651	786.623872859123	150.082403674188	1092.33765507884	657.901373308045	128.284822088276	1485.2858090761	981.448210338622	138.976220778044	1938.51927733903	352.182723091939	127	922.99307225478	682.65725171607	182.249569773162	1141.07364481444
291.70368210089	141.179704557167	587.9068041387	1449.71057157987	231.979776869672	2029.04529067339	666.342209537853	141	1284.73856760309	1004.17214417624	162.310022274767	1424.14469737393	1062.74641924324	130.12618865601	2382.75186867786	1048.78271291231	151	1560.8508000346	621.681788798753	128	1123.27986852925	1140.62935804327	169.717876498215	1583.87417521605	866.316950535573	141.791949144403	1529.41615054056	1484.82008970094	184.32073824581	2110.58246051761	1291.21357747408	139.634521564814	2307.71494084433	786.148058790747	150.101082211157	1090.41214451724	657.043308552981	128.343469258184	1480.83458115142	979.796561507189	138.988250197392	1931.84715832882	351.994586954343	127	921.022756185006	682.246772076989	182.367596213553	1138.37684596689
291.728267355082	141.154882687852	587.151917732481	1448.65429548044	232.516702260291	2024.39547898287	666.017627141602	141.001327222897	1281.83491071941	1003.65840125717	162.3112584558	1420.90600202323	1062.97343714601	130.130297433659	2379.60202260727	1048.81276516108	151	1559.87898034507	621.952259956083	128.001327222897	1122.11632374321	1139.72479139982	169.709706775648	1581.37718016061	866.075928521852	141.81573310396	1528.86245676948	1483.74376672921	184.33378907887	2107.93835081722	1290.98208608349	139.595809396847	2304.90949312653	785.755555672965	150.115224601697	1088.82046990503	656.448089001249	128.407773590483	1477.12201296984	978.612534685024	138.995349747749	1926.53610027085	351.868831575616	127	919.326445806368	682.022104375988	182.50192706728	1136.0506494241
291.767642903526	141.134612370351	586.478988984265	1447.63784322772	233.136994055037	2019.93161705915	665.826929209191	141.004650252251	1279.31739696935	1003.24658699205	162.314229014141	1418.04970828153	1063.2616982681	130.134859772532	2376.92608965817	1048.86428825136	151	1559.23175752853	622.236649136847	128.004650252251	1121.06010434407	1138.89073722911	169.674454460534	1579.23823031973	865.91608451359	141.844051947113	1528.6613966219	1482.91837613575	184.338889763857	2106.16119412587	1290.82341646047	139.538267465105	2302.61149466405	785.475318261346	150.123109969924	1087.63468558485	656.107419463727	128.475091876914	1474.18945983706	977.855594629265	138.998672777103	1922.57300668521	351.803901187409	127	917.932358024682	681.972000068878	182.641633533025	1134.13373446981
291.825723181384	141.125379982522	585.90343648054	1446.74142382036	233.79158695531	2015.91611900246	665.767829237038	141.011749802608	1277.24883247022	1002.98520456338	162.32125332045	1415.6983415364	1063.62098906969	130.139003823654	2374.92092570543	1048.96245492137	151	1558.99112784749	622.560692360927	128.011749802608	1120.23200585267	1138.21997599044	169.628382784233	1577.64395902115	865.880612643929	141.875138566887	1528.84309672522	1482.43144843262	184.344250268879	2105.36725056272	1290.78058483514	139.46832865347	2300.95591965465	785.33923759698	150.125647181409	1086.92634233325	655.995340357696	128.542285629603	1472.04218664776	977.469401324062	139	1919.91766999495	351.791441132029	127	916.853839082126	682.074628546744	182.774209448794	1132.65745555649
291.903829898955	141.130309851513	585.429762439675	1446.0374517509	234.424240010194	2012.58262259506	665.824022952982	141.023779221956	1275.65837829205	1002.91045106468	162.332995464487	1413.94001204755	1064.05424455795	130.141805662347	2373.73959681856	1049.13401381488	151	1559.21815990264	622.941298438364	128.025106444853	1119.72519872673	1137.79764162142	169.591256568539	1576.74889943274	865.999809048565	141.905846523204	1529.40554614801	1482.3473130028	184.360491856021	2105.61658755129	1290.89453802848	139.396194603872	2300.05663170303	785.374962052052	150.12618865601	1086.75372579233	656.076176591804	128.605015384716	1470.66162607132	977.393438340089	139	1918.5049044795	351.821004022302	127	916.096019565306	682.301824915985	182.888106827594	1131.64838846856
292.000891641749	141.148233570231	585.052887856653	1445.58301942351	234.982845426168	2010.09534058353	665.970286226895	141.04072345119	1274.53725617072	1003.03913259106	162.35014456825	1412.8120220091	1064.55711255404	130.143560600305	2373.46347050845	1049.39917437136	151	1559.94145817506	623.381790829044	128.046700926337	1119.5940731675	1137.68356492654	169.581092787776	1576.64424634094	866.286005353566	141.934192821633	1530.32671209171	1482.69820361473	184.397352910657	2106.90166074447	1291.19662146058	139.331523014614	2299.99964606289	785.600454029597	150.129104600526	1087.15057726287	656.314555673893	128.658984847096	1470.01863235508	977.568314163317	139	1918.24767725403	351.881899090557	127	915.659187500621	682.628607865086	182.975072840655	1131.12929261563
292.114962965033	141.173988939881	584.761319849306	1445.4217899041	235.431000513063	2008.53619038831	666.179161696494	141.061156926116	1273.84842278562	1003.37071130488	162.371700391544	1412.3009776055	1065.11307953789	130.143560600305	2374.09236578432	1049.7614569127	151	1561.14803529597	623.868656860068	128.077556980975	1119.8470844614	1137.89616476888	169.611114042515	1577.34143777968	866.731716325489	141.957949325913	1531.55739160813	1483.47198865166	184.462532738871	2109.13233521171	1291.69882776551	139.282115891106	2300.80822235991	786.017351035596	150.140041129988	1088.10996657115	656.680064112506	128.699205571926	1470.07202333588	977.942717114589	139	1919.02908454845	351.966951697943	127	915.53774259999	683.03490530973	183.032994650796	1131.10942851397
292.242457804951	141.202278528136	584.546524388829	1445.5800533558	235.752517588209	2007.90167068458	666.429289560105	141.082403674188	1273.53825632304	1003.89265972679	162.397884667178	1412.35194046844	1065.69584391711	130.141805662347	2375.5202700961	1050.20817874972	151.001327222897	1562.76961633499	624.373713031505	128.117932698753	1120.43779778387	1138.41006512791	169.686820444009	1578.75771912205	867.305563559111	141.976220778044	1533.02641765096	1484.60837144471	184.55983362185	2112.14077172829	1292.3762695177	139.252089829193	2302.42297178185	786.60330610506	150.16463362509	1089.57482982593	657.149042702128	128.720685947587	1470.77265649524	978.473842130069	139	1920.70957073138	352.070480148294	127	915.718190590634	683.507046224963	183.064225963695	1131.57670241401
292.379852355232	141.225519403977	584.406311214242	1446.05976430756	235.953031682405	2008.12405637503	666.711586010182	141.101082211157	1273.55656685419	1004.58840657075	162.428388250802	1412.89639595503	1066.28398033433	130.137676600757	2377.56804378037	1050.72532809693	151.005977475148	1564.70160167577	624.864503180017	128.1669121072	1121.27971536071	1139.17940332133	169.807420657725	1580.74479122746	867.959797136047	141.986922974495	1534.63469139211	1486.01176931104	184.688160736076	2115.68887559789	1293.17176133969	139.241413119765	2304.67447852441	787.314501409038	150.207091384014	1091.43078659786	657.70368808706	128.72175335045	1472.04207920541	979.128701557132	139	1923.11003837942	352.190839427477	127	916.166641175016	684.03914419051	183.077753421938	1132.48358526645
292.523173815352	141.239544560209	584.350596476971	1446.82841876073	236.053391840942	2009.09259755593	667.024408471993	141.113897378801	1273.87527475442	1005.43316925128	162.465335111415	1413.87680526891	1066.86713069951	130.131536743178	2380.02077586652	1051.31155958193	151.017727277756	1566.82857328572	625.31523412769	128.220428008357	1122.27006421459	1140.15542299138	169.963753077774	1583.12643719211	868.636537793153	141.990699495499	1536.26761180631	1487.56475733181	184.842947782405	2119.50426750425	1294.00104860293	139.246861676107	2307.29444953447	788.091635409801	150.269034058427	1093.51799133386	658.325290758433	128.700665070095	1473.76051772476	979.875205060784	139	1926.00908478661	352.325545539466	127	916.822282602037	684.624892887225	183.084936148072	1133.73926845465
292.667162180343	141.243321150786	584.395634050864	1447.81467621999	236.0805849266	2010.67216502582	667.372499361533	141.118459717673	1274.48813723983	1006.39823024925	162.509384720445	1415.25519841698	1067.4490815312	130.123197883302	2382.68623974126	1051.98396205967	151.041506499712	1569.06631741416	625.713821253461	128.273770120586	1123.32023721756	1141.30145613735	170.144701682061	1585.74932296448	869.280425049245	141.986922974495	1537.79583586851	1489.15764237132	185.017727277756	2123.30486366276	1294.77836591331	139.263697312114	2309.93764355518	788.874137574157	150.34890052113	1095.64568569349	658.990392741893	128.659770595392	1475.75955315366	980.680448953193	139	1929.14646613408	352.469743789745	127	917.593686570533	685.255134650876	183.097846957239	1135.21262956067
292.803776115838	141.237024504179	584.559922326611	1448.90452327747	236.057793900853	2012.72227063666	667.75384409144	141.113897378801	1275.407931539	1007.44193216971	162.561095427849	1417.01591054439	1068.05422054687	130.114159236662	2385.43502194625	1052.78469378606	151.082229950902	1571.38648548971	626.070901273761	128.321162486102	1124.38101978291	1142.6105426017	170.337679775269	1588.51364603516	869.850312424229	141.976220778044	1539.11075071535	1490.70769458124	185.204536192454	2126.86327372162	1295.44356387741	139.286939866643	2312.27599516917	789.617626600889	150.44209736406	1097.63799467045	659.668995742311	128.602752982797	1477.83029778607	981.50559559848	139	1932.24226461627	352.615736532702	127	918.365495679743	685.915484060041	183.126442647784	1136.74378352299
292.922494770402	141.223396063389	584.850801096688	1449.95601043853	236.000173723287	2015.09249776883	668.157081790903	141.102409434054	1276.63898913479	1008.50869615409	162.619321419917	1419.14009933262	1068.71103068998	130.106182896144	2388.22907814354	1053.75906588722	151.143386877018	1573.82770550004	626.411681442338	128.356785252304	1125.45927929778	1144.08692930835	170.532215520905	1591.39121415846	870.333015856596	141.95927654881	1540.1478836697	1492.18208473028	185.39672366062	2130.04903094677	1295.9896838001	139.312992763535	2314.08208876386	790.305307379712	150.54185235232	1099.37311791196	660.33222163879	128.535473354556	1479.7494826367	982.312733860854	139	1935.02473848793	352.754203688928	127	919.014524427332	686.590026551418	183.176383427698	1138.17135348956
293.010342311223	141.205530799567	585.25956032416	1450.82817423268	235.915570190999	2017.63596888329	668.556482075386	141.087053926439	1278.16330308746	1009.53425099922	162.682444897593	1421.58913472039	1069.4432354752	130.101880377306	2391.1189552781	1054.93881255535	151.225790551206	1576.48275908283	626.769925333979	128.375917696778	1126.61231687793	1145.73573666095	170.721468996109	1594.41448416248	870.742405720616	141.938843073884	1540.89750804205	1493.59242853962	185.588203507418	2132.83778711877	1296.46609380795	139.338910443706	2315.2862603902	790.949865468266	150.641633533025	1100.80559068733	660.95469310614	128.464526645444	1481.33284689223	983.065600989626	139	1937.29199644878	352.87529165995	127	919.44362162208	687.262280330966	183.249119340425	1139.36876027151
293.055169940404	141.186018359229	585.75656433941	1451.41281029162	235.811258426088	2020.20521185243	668.919149674688	141.072906728724	1279.92000323504	1010.45625969184	162.746575440963	1424.28381422087	1070.26201790421	130.101880377306	2394.18464004244	1056.32766976331	151.326872762363	1579.44314236525	627.177597434202	128.375917696778	1127.91078631861	1147.54845078047	170.90243725916	1597.62730887563	871.117746557613	141.917596325812	1541.41605387705	1494.98575544794	185.775007614943	2135.31581519119	1296.96823824784	139.362666947986	2316.01190589999	791.588080666046	150.734284163753	1101.9825170589	661.524225735162	128.3985742401	1482.47192762221	983.738683592212	139.001327222897	1938.9410594588	352.970510501783	127.001327222897	919.598212227447	687.921215805409	183.342342375801	1140.27233822715
293.048790942641	141.166370632599	586.29307158581	1451.66371591944	235.698164775659	2022.6579404456	669.211712625633	141.064502673146	1281.80451125662	1011.22804433634	162.808004165623	1427.09677252537	1071.15319146552	130.106182896144	2397.49843691343	1057.88133318635	151.439442918267	1582.75847784616	627.651621780157	128.356785252304	1129.41399117942	1149.48198927641	171.073857987937	1601.05294018529	871.510825259907	141.898917788843	1541.80536394086	1496.41666192799	185.953299073663	2137.62988316991	1297.60332688508	139.382039795478	2316.52888641081	792.261227039226	150.814932899984	1103.01665329329	662.045006914689	128.344879656858	1483.16337351158	984.322014283545	139.004650252251	1939.99307464924	353.037556989668	127.004650252251	919.4863659327	688.564857562745	183.449982732287	1140.89390346186
292.988839267512	141.14688919188	586.811047292232	1451.60278025361	235.595576056097	2024.86745543589	669.408013678622	141.064502673146	1283.6795776889	1011.82398743174	162.863795849117	1429.86486059513	1072.0805040267	130.112832013765	2401.06568543667	1059.51361969858	151.554579606586	1586.38967805199	628.188381709485	128.321162486102	1131.13443191964	1151.46190600063	171.235697281282	1604.6529997161	871.971889463619	141.886102621199	1542.19684619924	1497.9227580019	186.121001736332	2139.94491652979	1298.45581577237	139.396728467794	2317.18194020823	792.999382492994	150.880392344938	1104.05434660504	662.535467792335	128.311084732513	1483.50343828315	984.82177823737	139.011749802608	1940.57371628371	353.078368354236	127.011749802608	919.172664782969	689.19840024959	183.566417322572	1141.31066644825
292.882129352447	141.126974404306	587.254706898627	1451.31784938017	235.529493416848	2026.73880463178	669.495904570882	141.072906728724	1285.39819022949	1012.24910494597	162.910413599677	1432.41405147983	1072.98944799639	130.118547631051	2404.79440054601	1061.10505942781	151.660050212132	1590.18911269683	628.767386607887	128.273770120586	1133.0245604438	1153.38682554768	171.38688175109	1608.31089698816	872.537038380868	141.881540282327	1542.71159380408	1499.50697072736	186.276136516073	2142.37673100203	1299.55396226678	139.406568339496	2318.2765651716	793.804911102423	150.929519851706	1105.21938194033	663.021393489656	128.302025871506	1483.66011407192	985.255558285919	139.023779221956	1940.87942463174	353.101082211157	127.023779221956	918.762516149745	689.829926712026	183.684091291949	1141.63968930371
292.741388521285	141.107059686304	587.580493389523	1450.93051512267	235.526446341897	2028.21858052217	669.478181379412	141.088381149336	1286.83020556848	1012.5278124027	162.946199523305	1434.58930125034	1073.81449361392	130.11978694057	2408.50447825382	1062.52153889578	151.74445275169	1593.9199642577	629.350013085776	128.220428008357	1134.98468748825	1155.13954794438	171.523583599963	1611.8488803672	873.218576914993	141.8861026212	1543.44399041786	1501.12591792256	186.416641147968	2144.96977861702	1300.85526189443	139.413121677652	2320.0045406453	794.647374758035	150.963143752539	1106.58113753585	663.527902484998	128.320037503602	1483.81621152668	985.650484187433	139.04072345119	1941.11459780142	353.117932698753	127.04072345119	918.373901078795	690.466902126714	183.796254363015	1141.9932889789
292.584330741468	141.088381149336	587.761898972666	1450.56193650697	235.605752748235	2029.29625134022	669.368186339869	141.107059686304	1287.87923348806	1012.69647034959	162.971570525793	1436.27898321347	1074.49200061294	130.1138973788	2411.9437756426	1063.6406829945	151.799489616933	1597.29145508847	629.895103391788	128.1669121072	1136.87668287775	1156.61197498055	171.641257569341	1615.04822852391	873.998485846705	141.898917788843	1544.43465539727	1502.69592806306	186.540175358184	2147.66937403112	1302.24489716194	139.42076994352	2322.37372923764	795.465252501854	150.983599945141	1108.12544551476	664.066038550883	128.36195135419	1484.11249686317	986.028208514101	139.061156926116	1941.43394396965	353.140732431224	127.061156926116	918.10659316184	691.105420461438	183.896523301026	1142.44144327564
292.427425916772	141.074233951621	587.793853849181	1450.30003027427	235.774428055388	2030.00399856703	669.186825843571	141.125647181409	1288.49638278356	1012.79020245917	162.986922974495	1437.43479391783	1074.97174672678	130.102409434054	2414.84462724727	1064.37439784176	151.821084098418	1600.02280331922	630.366633306678	128.117932698753	1138.5563337319	1157.72120254715	171.734480604716	1617.69893157086	874.833202048249	141.917596325812	1545.66014381051	1504.10550391922	186.643794780825	2150.3423938577	1303.55642258558	139.432493553683	2325.2047944128	796.17728236225	150.992695301956	1109.75790435402	664.62781096223	128.422091604195	1484.60359371385	986.400998393887	139.082403674188	1941.90370693388	353.17813285306	127.082403674188	918.01647712032	691.729616633269	183.97974024836	1142.98841524809
292.284315749205	141.069152925397	587.687076705973	1450.17876783386	236.02266665731	2030.3971079268	668.956020388461	141.142238939629	1288.68051930959	1012.837228055	162.994022524852	1438.07127666435	1075.22505104042	130.087053926439	2416.97105836019	1064.68922683282	151.810259930057	1601.90069314144	630.739987392011	128.077556980975	1139.89388059399	1158.42621353141	171.797182904552	1619.63889192358	875.662495561896	141.938843073884	1547.03624110226	1505.24982821705	186.723661243529	2152.80852302675	1304.61069698824	139.452519943772	2328.16097727041	796.70448870824	150.994022524852	1111.32774954587	665.181227779838	128.49141657419	1485.25340721872	986.766353987681	139.101082211157	1942.5038828122	353.23051527251	127.101082211157	918.111961092633	692.308655524169	184.041304259314	1143.57611026781
292.161188623826	141.076252475754	587.467293111393	1450.17880682952	236.326686621223	2030.55020920651	668.69530442713	141.15462082999	1288.47582188082	1012.85444628592	162.994022524852	1438.26510416157	1075.25642096188	130.072906728724	2418.17175709944	1064.61653531881	151.774659881531	1602.82925493368	631.011183473233	128.046700926337	1140.79843521028	1158.74038583803	171.826856425878	1620.78820915763	876.425372809154	141.95927654881	1548.42314484139	1506.0531520256	186.77518133823	2154.87930753279	1305.25495482149	139.480711318826	2330.81137839006	796.987916749457	150.986922974495	1112.66012232426	665.678355198351	128.55986194659	1485.93164254591	987.106877301135	139.113897378801	1943.12513756485	353.291138590112	127.113897378801	918.346421906876	692.803458471423	184.079490429446	1144.09680225086
292.057123506049	141.09668595068	587.168512626861	1450.24154521641	236.655310373201	2030.54549432399	668.421514381743	141.162239137273	1287.96290168568	1012.84890554826	162.988250197392	1438.13608649321	1075.09867266068	130.065829896043	2418.4191577987	1064.24640721831	151.724814743139	1602.85572950718	631.192244678032	128.025106444853	1141.23480929455	1158.7263114927	171.821941615993	1621.17047524044	877.072457667869	141.976220778044	1549.65451623313	1506.49599670752	186.793859875198	2156.40532802319	1305.39978914148	139.514221044263	2332.72974262839	797.008463796355	150.970243302896	1113.60424814516	666.063579365833	128.618261395906	1486.45883720909	987.393445641426	139.118459717673	1943.6185597057	353.345463164757	127.118459717673	918.63704988284	693.174412514228	184.09363288956	1144.42856979984
291.965254023958	141.127777377629	586.829467119792	1450.28980398922	236.977920016282	2030.46300607406	668.145375827843	141.164807348377	1287.24335120467	1012.81959082978	162.976220778044	1437.82141067568	1074.80886796864	130.069152925397	2417.8186543372	1063.70775359884	151.672947952129	1602.15825325428	631.306102657276	128.011749802608	1141.22549160524	1158.48115223705	171.78517620288	1620.90631130699	877.578181936001	141.986922974495	1550.57422751924	1506.61912210634	186.77772891911	2157.32076116195	1305.04153735763	139.547904296521	2333.59697306643	796.791463851973	150.941549271054	1114.06968859715	666.291408181965	128.65942286198	1486.65767554585	987.600208825306	139.113897378801	1943.83981724521	353.376990927901	127.113897378801	918.887648393535	693.392767102573	184.085467904594	1144.47325504369
291.875667623635	141.164893583067	586.487634067037	1450.25814036337	237.27087878968	2030.37036884773	667.875942295258	141.162239137273	1286.42306032465	1012.76435415704	162.95927654881	1437.44795699865	1074.45843736027	130.085983754229	2416.58724444018	1063.14223880525	151.629072357156	1601.00154042551	631.380257984887	128.004650252251	1140.84280743758	1158.12133825518	171.721207138248	1620.18628351629	877.94221841729	141.990699495499	1551.06784444579	1506.51845753344	186.727508522456	2157.65212822484	1304.26157719321	139.574499131761	2333.26994686538	796.402467161456	150.897336574172	1114.04862202129	666.337710160905	128.680055971997	1486.4054207748	987.707737782862	139.102409434054	1943.69635378622	353.371084210677	127.102409434054	919.016492869046	693.449839394635	184.05903153707	1144.18869493937
291.781514146838	141.202278528136	586.175076233335	1450.10865007111	237.525090108368	2030.31854231252	667.619818532625	141.155948052887	1285.59597083303	1012.68185886732	162.938843073884	1437.10648032936	1074.11419322379	130.116810623543	2415.01311740138	1062.67168819317	151.600753514003	1599.6757566823	631.436380361164	128.002654445794	1140.1915987935	1157.75531215575	171.636983280774	1619.23125073571	878.187811480559	141.986922974495	1551.08841300296	1506.31949503491	186.648020792784	2157.51467795926	1303.20784880628	139.587377816419	2331.81859801499	795.932044557922	150.836693597807	1113.61568833288	666.208698294612	128.678321664263	1485.66677817425	987.714173349319	139.087053926439	1943.16987240756	353.321677087169	127.087053926439	918.975192275608	693.361836108868	184.021246748072	1143.60188795172
291.681759158578	141.235941983689	585.917848373832	1449.84505542598	237.741462990337	2030.33792113438	667.385981375598	141.14688919188	1284.83763153917	1012.5803613076	162.917596325812	1436.84287586608	1073.82804279582	130.159532940102	2413.38986969588	1062.37477642484	151.589758529645	1598.4249963577	631.484639147444	128.004650252251	1139.38422514469	1157.46786342598	171.540525129423	1618.24690408227	878.34732829258	141.976220778044	1550.65901709797	1506.14148997012	186.547480056228	2157.07218815132	1302.05237623022	139.582418762104	2329.49777862128	795.471283349787	150.761508386973	1112.90400066577	665.93842387137	128.657416755701	1484.51459211475	987.629980377538	139.072906728724	1942.33131537422	353.231558930324	127.072906728724	918.766399698823	693.164476280437	183.977426029031	1142.810875143
291.581607388843	141.263323782165	585.734096523588	1449.50736079198	237.928631986729	2030.43696117657	667.186311591865	141.137396984017	1284.19724798175	1012.47702058698	162.898917788843	1436.65738604043	1073.62946045722	130.210583329481	2411.97302066999	1062.28001757957	151.594351798563	1597.41224374767	631.522704376068	128.011749802608	1138.52570930123	1157.31368637615	171.440770141163	1617.39589808454	878.452386472263	141.95927654881	1549.85784901852	1506.06957409076	186.436119888913	2156.48822538037	1300.95417819951	139.559758915584	2326.67058094531	795.093010268111	150.678039347749	1112.06652414675	665.580693661687	128.622928803612	1483.11145395677	987.479351896534	139.064502673146	1941.31966397181	353.112570155904	127.064502673146	918.439476220778	692.906327114531	183.934990987783	1141.96019751505
291.494026443484	141.284044601976	585.638181820681	1449.161877725	238.094761820402	2030.61689353546	667.035656795909	141.129511685363	1283.71248930891	1012.39790076644	162.8861026212	1436.52834921502	1073.52442781776	130.265366065007	2410.95173771249	1062.37152091891	151.609420030867	1596.71226478856	631.539926879005	128.023779221956	1137.70754547386	1157.31508376898	171.344250268879	1616.7880915418	878.526231457064	141.938843073884	1548.81056732012	1506.14178095304	186.326872762363	2155.90809641787	1300.03361410562	139.525693871382	2323.74888102291	794.840975424359	150.596174019676	1111.25231990005	665.195941455501	128.581248580613	1481.67378741421	987.289053292342	139.064502673146	1940.30542530759	352.982005523358	127.064502673146	918.079348989411	692.636623683286	183.896804817651	1141.20748783647
291.434209158118	141.298181430295	585.641396436304	1448.88347568685	238.242982972779	2030.88751306538	666.950710131602	141.124454348275	1283.41512554115	1012.37388372146	162.881540282327	1436.43611146489	1073.49482646073	130.316859967263	2410.43945551332	1062.60120889659	151.629264311994	1596.33502613681	631.520060181304	128.04072345119	1137.00464173083	1157.46490943982	171.257284255818	1616.48455778582	878.579177057435	141.917596325812	1547.65425790854	1506.34668339587	186.231768026354	2155.42251247837	1299.35686822851	139.490706183477	2321.10499003428	794.72913057943	150.527562430938	1110.57620446922	664.8396403642	128.538433543502	1480.42971815077	987.086059582726	139.072906728724	1939.45996649405	352.858223910961	127.072906728724	917.786722432258	692.393958112924	183.864860610728	1140.69172587932
291.414551131665	141.305799737578	585.753160006173	1448.74080850898	238.371241252082	2031.27203019804	666.94499138583	141.122313852232	1283.33637854333	1012.43409872563	162.8861026212	1436.381781339	1073.51396164397	130.358540190262	2410.47943378566	1062.91489497115	151.649345315907	1596.26328110122	631.44986981163	128.061156926116	1136.4773007959	1157.74107182819	171.183312162058	1616.50719565184	878.60877195739	141.897590565946	1546.52645107767	1506.63831324329	186.159786931877	2155.08095306176	1298.93891403079	139.465347529269	2319.03745404371	794.747593042812	150.483074807025	1110.1179814288	664.551807044563	128.49887109887	1479.58047764433	986.893117402682	139.087053926439	1938.93128092999	352.755625902032	127.087053926439	917.661611209335	692.202106319457	183.838279619652	1140.5094856568
291.442084156949	141.30794023362	585.982314638839	1448.77569611214	238.475888132547	2031.82193119886	667.026754976308	141.123127125378	1283.51346718924	1012.59816758477	162.90024501174	1436.40420425917	1073.55352422654	130.384349277206	2411.05791650992	1063.27020759047	151.666198503277	1596.48690485033	631.323512056401	128.082403674188	1136.16974075759	1158.11214495252	171.125237396797	1616.85138903897	878.606815218418	141.880125146052	1545.55874699734	1506.95816887778	186.119086198363	2154.92062238241	1298.75701033514	139.458304689086	2317.76993596861	794.875731718298	150.468932416484	1109.93459100933	664.358762685775	128.465426153279	1479.26991760168	986.733180225628	139.102409434054	1938.82101668174	352.682960747229	127.102409434054	917.783103097212	692.070661708842	183.816636086565	1140.70435740924
291.516612832306	141.305893213177	586.336012574192	1449.00652751421	238.556082403862	2032.61328313282	667.196450135646	141.12618865601	1283.98672862625	1012.87807296071	162.922246578062	1436.57885014972	1073.59196870661	130.390033894874	2412.12783161652	1063.64808460241	151.679788773111	1597.02425441474	631.142389170245	128.101082211157	1136.10949424526	1158.5468040992	171.084861679019	1617.50070379119	878.56103928694	141.865140227468	1544.8583365015	1507.25580925333	186.110659425108	2154.97557529762	1298.76319347049	139.4724518868	2317.43205512493	795.089078994423	150.486856135202	1110.06131485359	664.268454301505	128.439020715801	1479.5779848635	986.623547442045	139.113897378801	1939.19448497886	352.640915635363	127.113897378801	918.201398669724	691.997463770145	183.800446675581	1141.27507274316
291.630059778369	141.30123040513	586.81961114178	1449.42209978814	238.619066150749	2033.73752836526	667.444958472148	141.128970210762	1284.79480109089	1013.27213296637	162.950592876492	1437.00927185842	1073.62765806605	130.375489981717	2413.62596181181	1064.06763199686	151.692478510484	1597.92698186081	630.918850135853	128.1138973788	1136.30348239681	1159.02874550926	171.064428204093	1618.43505263733	878.460320064765	141.850573596635	1544.50716279406	1507.50334191755	186.13135745767	2155.29703294164	1298.89939321513	139.503254290177	2318.07062938785	795.36682466463	150.531683764383	1110.52263929195	664.279139272929	128.421009083705	1480.52092681407	986.583093030684	139.118459717673	1940.0761673049	352.623546390842	127.118459717673	918.927262711298	691.974985974549	183.794331214367	1142.18504280546
291.769738719265	141.296315595245	587.435662745996	1449.9913913372	238.683495366197	2035.28515981323	667.755740007855	141.130209520281	1285.97118537259	1013.7707631369	162.983055770766	1437.80719940156	1073.67225531056	130.343190244869	2415.50630149429	1064.56904126622	151.706375346356	1599.2759673296	630.66957500259	128.118459717673	1136.74829999075	1159.54792978983	171.066612944565	1619.64499821581	878.296938117422	141.834415115697	1544.56004591935	1507.69810745189	186.174644520305	2155.95558748122	1299.10750706013	139.541428112028	2319.66297888941	795.692429848599	150.593901365826	1111.33253078348	664.381734848123	128.411905085809	1482.05368829224	986.624533797793	139.115224601697	1941.4513668301	352.620480260552	127.113897378801	919.930021639302	691.996955531189	183.804481995533	1143.37528990132
