Light	Light	Light	Light	Light	Light	Light	Light	Light	Light	Light	Light	Light	Light	Light	Light	Light	Light	Light	Light	Light	Light	Light	Light	Light	Light	Light	Light	Light	Light	Light	Light	Light	Light	Light	Light	Light	Light	Light	Light	Light	Light	Light	Light	Light	Light	Light	Light
Optode1-730nm	Optode1-Ambient	Optode1-850nm	Optode2-730nm	Optode2-Ambient	Optode2-850nm	Optode3-730nm	Optode3-Ambient	Optode3-850nm	Optode4-730nm	Optode4-Ambient	Optode4-850nm	Optode5-730nm	Optode5-Ambient	Optode5-850nm	Optode6-730nm	Optode6-Ambient	Optode6-850nm	Optode7-730nm	Optode7-Ambient	Optode7-850nm	Optode8-730nm	Optode8-Ambient	Optode8-850nm	Optode9-730nm	Optode9-Ambient	Optode9-850nm	Optode10-730nm	Optode10-Ambient	Optode10-850nm	Optode11-730nm	Optode11-Ambient	Optode11-850nm	Optode12-730nm	Optode12-Ambient	Optode12-850nm	Optode13-730nm	Optode13-Ambient	Optode13-850nm	Optode14-730nm	Optode14-Ambient	Optode14-850nm	Optode15-730nm	Optode15-Ambient	Optode15-850nm	Optode16-730nm	Optode16-Ambient	Optode16-850nm
535.044142749018	141.935497326854	877.854811278425	824.031707829886	227.69218173829	1054.07234127181	589.512197126773	149.155310402913	840.388558728724	1230.49942046123	158.616353364885	1534.15795925392	1192.67550212875	138.677777489888	2040.68475736028	1090.68380236675	147.525693871382	1532.86257284813	476.71489559521	134.04072345119	686.398204529478	1113.28473701735	166.093054119263	1449.34824583855	626.570405649529	147.345127059039	834.91717188693	934.15895325153	180.570119444096	1134.93015990748	1136.41239973899	180.217888027526	1815.57878502595	1240.9196988451	146.098013173577	1480.50459050756	912.909878866273	169.560557081733	1707.20065212145	1175.80379495832	134.989577420289	2025.36786071874	771.809467839179	204.167866841181	1452.25053084356	1053.09026594836	139.803966145897	1659.1808122401
534.657790957766	141.964470975436	875.995440819312	823.577428648165	227.565207333984	1052.53749493846	589.095295383174	149.106530629557	838.500001673289	1229.48485143029	158.538783314741	1530.97773361884	1191.73761227697	138.570979661445	2037.17356313982	1088.36816419714	147.445332480036	1527.80620373952	476.792828368298	134.023779221956	685.601651896049	1110.47855796766	165.995153306787	1443.47158575329	625.849193704107	147.31600218365	833.588840020971	932.818515321099	180.475962838814	1132.26690832492	1136.2590890213	180.122155235942	1814.39772302973	1239.30632851495	146.057123506049	1477.44865952743	911.388981250939	169.440770141163	1704.21863553049	1173.68917771543	134.976220778044	2020.29906574164	770.905764216889	204.036067636718	1450.22376855062	1052.00185984888	139.731577966583	1656.02980199515
534.312426174731	141.983599945141	874.053752881176	823.199892180828	227.44209736406	1050.91151950377	588.701678920967	149.065829896043	836.497644566343	1228.58485102048	158.478429361948	1527.63372665266	1190.70034283434	138.465876586016	2033.56050962482	1086.05247006801	147.368661578589	1522.79371164988	476.881121604256	134.011749802608	684.791678034383	1107.68025502661	165.911994814348	1437.7491960541	625.174233679497	147.297904676003	832.209517112224	931.549103454433	180.401112276206	1129.55602513108	1136.19457665571	180.041506499712	1813.05018867654	1237.83440449256	146.029756697104	1474.419640102	909.91984420109	169.326872762363	1701.13371170761	1171.66698650528	134.95927654881	2015.28003859509	769.944186675829	203.903113057491	1447.94345771098	1050.85083896523	139.661893284665	1652.54993470836
534.023377540645	141.994022524852	872.175314556409	822.91890198694	227.326872762363	1049.35387164976	588.358933975326	149.035529024564	834.529567334829	1227.85437467316	158.440502942277	1524.39756790109	1189.6425365543	138.3735736887	2030.14013595208	1083.87674949325	147.30097576204	1518.16076820015	476.97965827236	134.004650252251	684.041202997391	1105.03544284622	165.841625366682	1432.51281312751	624.583701281628	147.294931058749	830.874508455731	930.438856490642	180.349011152184	1126.99736633286	1136.26184176445	179.979129215612	1811.71945422205	1236.59805991462	146.014404248402	1471.64885920344	908.594458529533	169.225790551206	1698.24273269833	1169.85957765077	134.938843073884	2010.71866257723	769.006312143341	203.77906009035	1445.67894796499	1049.74042448369	139.605403766253	1649.08733963623
533.809910273691	141.998672777103	870.509878927202	822.760618770613	227.225790551206	1048.02926672557	588.09432527713	149.016400054859	832.751033405908	1227.35216437379	158.425951300976	1521.55289571343	1188.64945839628	138.304674755078	2027.23085222226	1081.98514178998	147.247037299278	1514.24164805344	477.094708395723	134.001327222897	683.436898413979	1102.70613061871	165.783784159437	1428.09790608062	624.120192339668	147.311603489438	829.701616057441	929.561846971211	180.323353292047	1124.79513874826	1136.4920549757	179.937453799788	1810.61357086344	1235.66892961241	146.010627727398	1469.36418573805	907.490374715575	169.143386877018	1695.8263245565	1168.3686065235	134.917596325812	2006.98475980479	768.166881500368	203.668292962277	1443.70106605027	1048.76769256518	139.571341850538	1645.98942686721
533.688362325158	142	869.176561292138	822.748830926921	227.143386877018	1047.06193656453	587.931504190435	149.007304698044	831.290290726286	1227.12480425156	158.430876480257	1519.32330970727	1187.79836797706	138.267297050918	2025.10423988326	1080.49891169637	147.208395889235	1511.30085917702	477.236680136466	134	683.059090616629	1100.83850027948	165.737197408495	1424.77902032916	623.822107908534	147.350244899481	828.807339493123	928.965357395837	180.32592150315	1123.12024283928	1136.89878150976	179.918396529788	1809.92082505348	1235.08401109191	146.017727277756	1467.74604588442	906.66470546166	169.082229950902	1694.09721800299	1167.2634731245	134.898917788843	2004.33874214606	767.486499288406	203.570666052207	1442.23151172735	1048.01014961987	139.565478481213	1643.5355927443
533.67187524545	142	868.251271708373	822.894860345252	227.082229950902	1046.51747865392	587.885804321961	149.007304698044	830.236693736684	1227.19737326991	158.449267672341	1517.84349005663	1187.15078026909	138.264214890063	2023.93661564231	1079.5007580902	147.184097910354	1509.48778776409	477.417521620432	134	682.96479260187	1099.54090383293	165.701411484867	1422.72430598011	623.713807234023	147.410481687538	828.283143577703	928.664132504136	180.356629459467	1122.08785804972	1137.47284059865	179.921631645764	1809.77765980423	1234.84317037763	146.035529024564	1466.90696187826	906.152426256929	169.041506499712	1693.18039809948	1166.57959287811	134.8861026212	2002.90700240437	767.008826394962	203.482788542168	1441.41821610407	1047.5194876143	139.588719357054	1641.90290592362
533.769442665368	142	867.758483050023	823.195788495386	227.041506499712	1046.39263236228	587.961500413002	149.016400054859	829.625696207933	1227.56798604344	158.475076759286	1517.14125385918	1186.74963239432	138.292813280383	2023.80119731946	1079.03106434561	147.171995636733	1508.84074804847	477.648398054663	134	683.179657526861	1098.87944832094	165.67600948276	1421.99861598966	623.797463490484	147.487265919814	828.18179968109	928.645842176234	180.41216694367	1121.75425233804	1138.18443977247	179.944291492284	1810.25397600727	1234.91470541866	146.064502673146	1466.89125960583	905.975234366309	169.017727277756	1693.10910626275	1166.32861735378	134.881540282327	2002.67793476647	766.763343969337	203.404632772994	1441.32499188406	1047.32821928389	139.636897470866	1641.15259907294
533.98654499249	142	867.681873872539	823.636676056693	227.017727277756	1046.63190041966	588.154294599362	149.035529024564	829.446133688058	1228.21474277878	158.504050407868	1517.15773074104	1186.61480816669	138.344250268879	2024.65069267956	1079.0865268816	147.169025078392	1509.28659115154	477.931840947469	134	683.689469072937	1098.87026679252	165.66270655781	1422.56104027602	624.05281298362	147.571259278185	828.507438153009	928.88251862859	180.486577121887	1122.12379054982	1138.98968803618	179.981407697722	1811.35067263647	1235.24975265305	146.103207600203	1467.68484558795	906.139554144557	169.007304698044	1693.85406798879	1166.4994224014	134.886102621199	2003.54636578371	766.766117242147	203.338810557204	1441.95315025634	1047.44568299428	139.701818569705	1641.25913741993
534.324616386461	142	867.984183544264	824.192930467964	227.007304698044	1047.15781195377	588.450195717236	149.065829896043	829.657317637533	1229.09775436256	158.534747994789	1517.79098159156	1186.74770859765	138.405241116599	2026.34704131722	1079.63170533197	147.171539641774	1510.68016316698	478.262885938853	134	684.445636270509	1099.48871699841	165.661893284665	1424.29260592835	624.441136786655	147.650675238578	829.226432244239	929.342795078584	180.572306884342	1123.17004205573	1139.8402692759	180.02722422322	1813.01948813642	1235.79554605924	146.149538075452	1469.23873894133	906.641916162421	169.005977475148	1695.33809831243	1167.06847474017	134.898917788843	2005.3450094479	767.021151089118	203.293733418442	1443.2520831338	1047.86882484049	139.773258189581	1642.13069477436
534.781905420522	142	868.620680204133	824.841057029617	227.005977475148	1047.89637031428	588.831232275542	149.106530629557	830.198891150766	1230.17448547121	158.568459605414	1518.92865988823	1187.13176581409	138.460949624315	2028.69313875027	1080.60835105838	147.179211596779	1512.83536724864	478.627955019547	134	685.380358952709	1100.67428725666	165.674275175026	1427.01424720237	624.916127764857	147.713029805002	830.274052922135	929.994151820974	180.660399983371	1124.83340037093	1140.69249252407	180.076758814826	1815.16942506818	1236.5010813743	146.199885940204	1471.46835012438	907.459726993828	169.011749802608	1697.46384425303	1167.99176879145	134.917596325812	2007.89070645771	767.516768331504	203.278683307696	1445.14646466999	1048.57476836167	139.841343850058	1643.65395916087
535.349365696387	142	869.548964734119	825.558117294191	227.011749802608	1048.79823082503	589.275023951428	149.155310402913	831.010088081722	1231.39770745486	158.608109963424	1520.47983833329	1187.73421953829	138.498246656007	2031.45067319334	1081.93812251992	147.191995834377	1515.53961507562	479.008255957257	134	686.412217087778	1102.33597257692	165.699298513675	1430.49335426976	625.430545853507	147.750082493425	831.565617218306	930.800962054369	180.742715744182	1127.01652191097	1141.50868161994	180.125647181409	1817.67405513842	1237.31403806853	146.250508614521	1474.24335638693	908.549291095619	169.023779221956	1700.11107429388	1169.20188108291	134.938843073884	2010.98776764578	768.223468846702	203.300732959518	1447.53731206633	1049.52296224432	139.898663797069	1645.70535917465
536.009751410812	142	870.724457072623	826.32413621779	227.023779221956	1049.83614675606	589.757706477364	149.207265107301	832.028406882036	1232.71838483256	158.655482532234	1522.3691819468	1188.50018731654	138.508493612547	2034.37108610627	1083.52328399278	147.211744336039	1518.5687653212	479.381000451316	134	687.461886427848	1104.34868740101	165.73508436773	1434.45087856195	625.942862038271	147.756482171038	833.004509577041	931.71608510961	180.810710362794	1129.57188559923	1142.25540005537	180.171212588211	1820.37166737672	1238.17764443427	146.29685976962	1477.37798089014	909.836404714373	169.04072345119	1703.12181707427	1170.60194467032	134.95927654881	2014.41423575953	769.092118830338	203.359068457751	1450.29463978761	1050.65187979438	139.941549271054	1648.14724610776
536.731283499154	142	872.093812134758	827.112708190763	227.04072345119	1050.99598029515	590.249162385078	149.255703041147	833.190502399091	1234.07097279922	158.709459235525	1524.52747512947	1189.35819922236	138.488060137621	2037.21464995327	1085.24702519618	147.23892489031	1521.69453413172	479.723177082526	134	688.457048362007	1106.55658236529	165.777265279261	1438.57049252414	626.420884012134	147.733501115231	834.486536433914	932.677313055144	180.858362548344	1132.30265551147	1142.9031990049	180.211127503856	1823.07221663097	1239.02827740013	146.33423747378	1480.6331654751	911.221494601161	169.061156926116	1706.30319547054	1172.06552967402	134.976220778044	2017.92133081325	770.054764104136	203.445013308576	1453.26020693673	1051.88052802811	139.970243302896	1650.82790184885
537.469562179571	142	873.580722902923	827.88853546091	227.061156926116	1052.2543955635	590.713293114969	149.29351402259	834.421798039487	1235.37247029291	158.765162936067	1526.86281605731	1190.21527537782	138.439622203775	2039.76100901005	1086.96964727743	147.272553528743	1524.68551480424	480.012153787785	134	689.333360188001	1108.77136083042	165.820033584971	1442.51112243706	626.837448006439	147.685063181385	835.902788208082	933.604876251714	180.879609296416	1134.9728760057	1143.42042779513	180.243315588564	1825.56733376957	1239.79371209048	146.358540190262	1483.7349552455	912.591136989597	169.082403674188	1709.42858550116	1173.45492973905	134.988250197392	2021.22943411845	771.033931454328	203.543162419763	1456.24623809707	1053.12117458082	139.986922974495	1653.57686041514
538.170474839414	142	875.081364688727	828.604912171969	227.081076451291	1053.56480358473	591.108962579837	149.314760770662	835.632417214316	1236.52387799032	158.813605677087	1529.24431024486	1190.96951201999	138.37028999287	2041.82509141936	1088.54327109909	147.30869505187	1527.32698360951	480.224870220775	134	690.035873162697	1110.78706969275	165.854495344615	1445.9385728323	627.167818542528	147.618278551361	837.143451714996	934.409433915128	180.871069122761	1137.33329956326	1143.77113397822	180.265889559533	1827.64529661527	1240.40011625517	146.36697177069	1486.4054546803	913.830321947857	169.101082211157	1712.26725882958	1174.63268259179	134.995349747749	2024.06450162743	771.950312377394	203.635737115623	1459.05759690753	1054.28559453636	139.995349747749	1656.22263957325
538.779168696014	142	876.469401311309	829.209046818183	227.096431958906	1054.84902157436	591.395441141096	149.317389024011	836.719494578997	1237.42593560353	158.846190543271	1531.50182313268	1191.52743589231	138.290016514902	2043.26437831231	1089.83214849513	147.34118887619	1529.43587084668	480.342026404688	134	690.517458680979	1112.40799132289	165.872230129319	1448.55736098102	627.388517224541	147.540525129423	838.108596918244	935.002518234178	180.831506678129	1139.16203426899	1143.91835693206	180.276136516073	1829.12393333114	1240.77989761926	146.358540190262	1488.41455718219	914.843128228309	169.113897378801	1714.61163328594	1175.48902238348	134.998672777103	2026.19011210585	772.734716678478	203.705730669179	1461.51113947052	1055.30271899552	139.998672777103	1658.60581433215
539.251763054105	142	877.6153318024	829.654546165873	227.100820353295	1056.0096233748	591.541796724462	149.302033516396	837.581675423676	1238.0029236089	158.853267375952	1533.45337373934	1191.81957049944	138.209390496348	2043.98790696185	1090.73633889342	147.363102529134	1530.88486490888	480.346821883915	134	690.741112446371	1113.47951644942	165.8652967953	1450.14906704643	627.478104635319	147.45814764768	838.72199807646	935.312522512853	180.762459646186	1140.29961980708	1143.82754777901	180.271753324767	1829.87606687357	1240.88386436339	146.33423747378	1489.61708282657	915.563722378985	169.117132494776	1716.30748716102	1175.95872648683	135	2027.44922472887	773.337639988263	203.740867864475	1463.46250572442	1056.12554112882	140	1660.60513982665
539.559877076655	142	878.406990689295	829.907772384064	227.088703020569	1056.9485420426	591.532243068824	149.273770120586	838.13413991751	1238.21697742273	158.831506678129	1534.93416059798	1191.81525836805	138.13740940187	2043.96698562111	1091.21195226299	147.369600419948	1531.61913533223	480.229852644082	134	690.685738420696	1113.91464750235	165.828183648775	1450.6002470831	627.422103259491	147.375743973492	838.945270271104	935.296736555941	180.668476985386	1140.67000838024	1143.47570103738	180.251486066179	1829.8477900548	1240.69023941832	146.29685976962	1489.97370814622	915.962763720001	169.10924712655	1717.27499550625	1176.02627976119	135	2027.7903828657	773.731780293985	203.732889090222	1464.82280416786	1056.73350204592	140	1662.15196178942
539.699061700423	142	878.769973894862	829.959052804728	227.054119426958	1057.58380206746	591.371063955561	149.239556978063	838.324044699816	1238.08069902489	158.781588615891	1535.8294324611	1191.52157030113	138.080902728005	2043.23652368902	1091.27162223962	147.357218529586	1531.66431315162	479.988699078313	134	690.351794559444	1113.70293994632	165.761132423289	1449.91151614558	627.220183539584	147.297209540859	838.785552079292	934.949852307411	180.55790263594	1140.2883215591	1142.85840587147	180.21365236706	1829.06654442023	1240.21110983198	146.250508614521	1489.55059924971	916.042998061812	169.089332408549	1717.5168969865	1175.72243150146	135	2027.27516296067	773.912110501836	203.680153375139	1465.57480420345	1057.130596355	140	1663.23899323512
539.686968112746	142	878.673845087482	829.824373566273	226.992441310181	1057.86402653801	591.08279050391	149.206308335493	838.134280954418	1237.65666970383	158.707873213679	1536.08696288865	1190.98034180819	138.041506499712	2041.88316238558	1090.98021673662	147.32651057327	1531.11047524391	479.629729085538	134	689.760587072206	1112.90590625071	165.668476985386	1448.18125604412	626.884463712018	147.224992385057	838.294543381321	934.298715184337	180.440770141163	1139.24881007973	1141.99254393947	180.159706663389	1827.63337304102	1239.48565948106	146.199885940204	1488.4971909681	915.835389239014	169.058624452232	1717.10882848247	1175.11235349454	135	2026.05943582527	773.894468299742	203.585455723967	1465.77023832353	1057.33797421138	140	1663.91382868951
539.558313476748	142	878.141215078596	829.541901004036	226.900042771343	1057.78033449297	590.707143954361	149.179089624869	837.589971900847	1237.04039473286	158.619059562056	1535.73312738326	1190.25626488757	138.017727277756	2040.04506129676	1090.43559719218	147.280786768324	1530.10241286554	479.166869134408	134	688.959463837908	1111.64136017659	165.55790263594	1445.59262706818	626.443282359932	147.16128787806	837.55619259872	933.400027264473	180.326872762363	1137.69782742926	1140.91625356633	180.091087346507	1825.69831062673	1238.57722516509	146.149538075452	1487.00752413625	915.386558195093	169.020433474926	1716.1776501435	1174.27805293245	135	2024.35572355337	773.708637063283	203.456566433009	1465.51514272143	1057.38450223732	140	1664.26091209692
539.35623718901	142	877.233791826893	829.164760111558	226.77518133823	1057.36045018822	590.288496562172	149.159960655163	836.744947584553	1236.34090035146	158.523173815352	1534.85035949235	1189.41792241683	138.005977475148	2037.88807049855	1089.74180811761	147.225536559432	1528.81172375794	478.619141675999	134	688.009913348494	1110.05201741544	165.440770141164	1442.37878205771	625.935347377441	147.107857852454	836.67426964253	932.32656816807	180.225790551206	1135.81500399671	1139.68638382985	180.010966754086	1823.44201276241	1237.56386792959	146.103207600203	1485.29539286168	914.749558740494	168.979566525074	1714.89595358513	1173.30282581708	135	2022.42134412847	773.391727129701	203.304030077901	1464.96606222614	1057.29939749769	140	1664.39988397688
539.123455586205	142	876.039551337944	828.74983700176	226.618805570281	1056.66153254468	589.869444656822	149.147783137494	835.672169782642	1235.65786381384	158.42795497352	1533.56208236583	1188.53385409797	138.001327222897	2035.58557993042	1088.99944076742	147.167339822261	1527.41098950257	478.011476804287	134	686.983401653086	1108.28758834761	165.326872762363	1438.79283830896	625.40596026283	147.065829896043	835.750629071837	931.16237384628	180.143386877018	1133.78263599937	1138.37458221189	179.924975492909	1821.04392307645	1236.52969888378	146.064502673146	1483.55705268811	913.98177409493	168.940048324871	1713.43828076241	1172.26655023126	135	2020.5012091474	772.990226730363	203.142052798489	1464.29213528553	1057.11420478372	139.998672777103	1664.44879297408
538.896351477624	142	874.664586082352	828.348883839249	226.433732642005	1055.76663332731	589.482021859843	149.139003823654	834.457879605106	1235.06802077158	158.339687930007	1532.0194431722	1187.66241847329	138	2033.31090111012	1088.29152699245	147.113630179914	1526.06747530465	477.368713329965	134	685.953240970806	1106.48893982083	165.225790551206	1435.09214999119	624.900693247955	147.036856247461	834.872915409389	929.989011371925	180.082229950902	1131.76788301103	1137.05661362742	179.837760862727	1818.66439063675	1235.55680819321	146.036856247461	1481.955571342	913.13813503209	168.906017339201	1711.9750316519	1171.23796103668	135	2018.82112968377	772.551405555185	202.984999825846	1463.66173934953	1056.85611742376	139.995349747749	1664.52162006638
538.699454277687	142	873.218843301114	828.001497304648	226.226641479187	1054.77058522806	589.144803913177	149.130209520281	833.18962251639	1234.61118672112	158.261846594691	1530.38114131806	1186.84878755832	138	2031.21602518704	1087.68164727669	147.069152925397	1524.92839259319	476.714910712838	134	684.983298191081	1104.77696110873	165.143386877018	1431.5196471239	624.460111957875	147.022377530006	834.106648915089	928.883153765086	180.041506499712	1129.91211130944	1135.80601072458	179.755596328724	1816.43140090886	1234.71708570412	146.021050307109	1480.61528561915	912.272176508862	168.879003070842	1710.64309494385	1170.2801066314	134.998672777103	2017.55437626588	772.123021252726	202.846527107398	1463.21246847379	1056.5550503862	139.988250197392	1664.70456666438
538.547399980112	142	871.812794231965	827.729638911048	226.004388394389	1053.7773272586	588.862388550104	149.118547631051	831.955201332659	1234.2958191161	158.197454552599	1528.80929296831	1186.12860352172	138	2029.42669949995	1087.2195332442	147.036856247461	1524.11772194483	476.072590419712	134	684.127285034393	1103.25045219643	165.082229950902	1428.29428769083	624.117598651663	147.022377530006	833.489768344548	927.915065783683	180.016400054859	1128.32175821792	1134.69013734971	179.683227946115	1814.42736886812	1234.07645895177	146.017727277756	1479.61623825865	911.437251985449	168.859088283268	1709.5462546582	1169.45360338859	134.995349747749	2016.827968091	771.751973356554	202.736947365064	1463.04219585039	1056.24503675522	139.976220778044	1665.05575749487
538.442968188018	142	870.551739090537	827.535620718631	225.775269472804	1052.88980964387	588.625918160983	149.102409434054	830.835039977514	1234.10073846593	158.147238963119	1527.45899389919	1185.53244958386	138	2028.04643324673	1086.94771485721	147.016400054859	1523.74443589234	475.462551745418	134	683.426177547466	1101.9911618534	165.041506499712	1425.61150812368	623.896305259644	147.036856247461	833.038926366373	927.140702486779	180.001327222897	1127.07143150107	1133.75963322129	179.625321612741	1812.69566630892	1233.68239904626	146.025106444853	1479.00353818514	910.684302343776	168.84537917001	1708.74988878189	1168.81645760889	134.988250197392	2016.71758426571	771.477380804298	202.661922857973	1463.20033390901	1055.96344248053	139.95927654881	1665.60265550786
538.385860158736	142	869.53002796876	827.409639380692	225.546953037308	1052.20111384181	588.422183401107	149.082403674188	829.901619150777	1233.99638958273	158.113207977449	1526.46996268343	1185.0892295429	138	2027.14087304898	1086.90588588458	147.005977475148	1523.88741804988	474.904364755138	134	682.907508757388	1101.06396432606	165.017727277756	1423.62563305406	623.806820231586	147.064502673146	832.753081713429	926.601878044167	179.989577420289	1126.20588282139	1133.04624667557	179.585222383217	1811.24703038737	1233.56655126	146.04072345119	1478.79795384205	910.060375270715	168.837760862727	1708.28831305211	1168.4225881347	134.976220778044	2017.25698958487	771.327885428068	202.620230217121	1463.69197300186	1055.74723507707	139.938843073884	1666.34696869736
538.370906239771	142	868.831907456597	827.329399740059	225.326872762363	1051.79000598665	588.235233845409	149.061156926116	829.217535205275	1233.94799586624	158.095563875471	1525.96251110115	1184.82373720954	138	2026.74535414502	1087.12950545086	147.001327222897	1524.60082523476	474.417130842367	134	682.587568815671	1100.51850010128	165.005977475148	1422.45072440214	623.846140277676	147.101880377306	832.622944158892	926.320141882887	179.976220778044	1125.74668235369	1132.55720884908	179.564940135098	1810.06974026059	1233.73826914625	146.061156926116	1479.00224280911	909.607059549688	168.835192651623	1708.17907910861	1168.31993433867	134.95927654881	2018.45072127249	771.321493746413	202.605386610799	1464.49338404301	1055.6332591935	139.917596325812	1667.27773856717
538.392605471677	142	868.52207468867	827.27019624396	225.119607655062	1051.70920896453	588.054418487854	149.04072345119	828.831164782632	1233.93300966668	158.094523927885	1526.02593451487	1184.76195337261	138	2026.86960558742	1087.65497386214	147	1525.91256363718	474.019357293478	134	682.475998074053	1100.39723980714	165.001327222897	1422.15825426214	624.001812632468	147.144887823202	832.632111946932	926.29997949038	179.95927654881	1125.69118973985	1132.28380964779	179.564680315064	1809.1359447949	1234.19391830011	146.082403674188	1479.60580391409	909.354045447378	168.837760862727	1708.42384750993	1168.54019838874	134.938843073884	2020.27115738738	771.463381291126	202.606701415842	1465.56292599908	1055.64558328507	139.898917788843	1668.37017513858
538.44857827099	142	868.643654138269	827.212538863359	224.928674485947	1051.98458668161	587.877772332832	149.023779221956	828.77770248311	1233.94791651335	158.110042592925	1526.71402748236	1184.92230454699	138	2027.50159990492	1088.51003924869	147	1527.82790525864	473.72875148726	134	682.575859927227	1100.73395725377	165	1422.78558689117	624.250852100315	147.188136137596	832.765714224479	926.526879291011	179.938843073884	1126.02614634653	1132.19681479294	179.583358852032	1808.42408785872	1234.91404190651	146.101082211157	1480.59997087973	909.320438515266	168.84537917001	1709.02435549744	1169.0963475091	134.917596325812	2022.67199341363	771.749962093231	202.613630150203	1466.86730139337	1055.79609675979	139.886102621199	1669.60042464855
538.540590346317	142	869.210526822287	827.14630647324	224.7556190464	1052.60871018461	587.713796237676	149.011749802608	829.072328572459	1234.010192798	158.140854403134	1528.03332828713	1185.3119325426	138	2028.62572523909	1089.70869532694	147.001327222897	1530.3416730024	473.558498661401	134	682.888516363847	1101.55099296965	165	1424.34823006975	624.563813252714	147.226729392565	833.005420584476	926.977268031138	179.917596325812	1126.7273279598	1132.2602515579	179.617680587782	1807.91506968984	1235.8775264872	146.113897378801	1481.97861063673	909.512747975288	168.857761060371	1709.97954176947	1169.98354803307	134.898917788843	2025.58611573801	772.173441312782	202.619275009565	1468.39095832922	1056.0829733847	139.881540282327	1670.94567175585
538.675359767805	142	870.205150126151	827.077322750795	224.600824271926	1053.54512746194	587.580329500848	149.004650252251	829.708262189302	1234.15985729599	158.184616667279	1529.94447994112	1185.93104358645	138	2030.2237785917	1091.2554775429	147.004650252251	1533.43883929383	473.517344366665	134	683.412095077636	1102.86012987741	165	1426.84298362002	624.912193106403	147.25613631843	833.340625622507	927.624789467794	179.898917788843	1127.77767091636	1132.43722630106	179.6629586497	1807.61544738272	1237.0661926929	146.118459717673	1483.75578167348	909.927622664947	168.874352818591	1711.29606035078	1171.18024185413	134.8861026212	2028.94588579461	772.724714290421	202.620386784953	1470.14610577259	1056.49419345569	139.886102621199	1672.39579016641
538.864177612236	142	871.570589666738	827.022300757088	224.464386980689	1054.72841307768	587.49833272393	149.001327222897	830.647075879151	1234.44879461357	158.239134775598	1532.35483812388	1186.7606683076	138	2032.28010043859	1093.12853191241	147.013077025505	1537.09753779097	473.607887588422	134	684.142283131264	1104.64383283182	165	1430.24348317335	625.272286270433	147.273080547663	833.768304395533	928.443798364289	179.884775398303	1129.16988879755	1132.69640450206	179.714112546688	1807.55833539712	1238.4651425363	146.113897378801	1485.96619501166	910.556351469442	168.894267536593	1712.98815761478	1172.65940743177	134.881540282327	2032.70245004515	773.396248587253	202.617749494613	1472.16636094327	1057.01656584827	139.898917788843	1673.95812572239
539.119982818857	142	873.216610410373	827.007822447565	224.345665405154	1056.07381551076	587.49009908844	149	831.820490275554	1234.93152138969	158.300444656835	1535.12755682841	1187.76870830304	138	2034.76338160061	1095.28321666337	147.028429474207	1541.27215868558	473.823849229695	134	685.06838346873	1106.84719544696	164.998672777103	1434.47325897092	625.631345010105	147.276136516073	834.296122743024	929.409291746551	179.875562807179	1130.89923525149	1133.01499085596	179.765255656619	1807.79222491914	1240.06074576962	146.101082211157	1488.64763142015	911.380143034352	168.916269102915	1715.07230124976	1174.38684624442	134.886102621199	2036.83412389377	774.177932164478	202.613640716964	1474.49264171979	1057.63540361792	139.917596325812	1675.66140670102
539.452181390657	142	875.028898517582	827.058964131185	224.245796311072	1057.48737568139	587.5689920142	149	833.135840969577	1235.64649666208	158.366531382368	1538.09549638936	1188.9041705116	138	2037.61183878008	1097.64630479634	147.052473253798	1545.8791449905	474.151554892072	134	686.1708542756	1109.36629875724	164.994022524852	1439.37727100339	625.987281782725	147.265889559533	834.940624116018	930.490120569079	179.869702566341	1132.95168938563	1133.37579973924	179.812299443552	1808.37135685683	1241.82483623766	146.082403674188	1491.81930590481	912.373793050342	168.937515850987	1717.55159829377	1176.32518139321	134.898917788843	2041.33694716374	775.058231788865	202.607326914902	1477.14597670746	1058.34101511869	139.937515850987	1677.5429605038
539.862433241039	142	876.879347831905	827.193885497729	224.16463362509	1058.87474933103	587.740488111582	149	834.484640967104	1236.60318409991	158.433582677428	1541.08099077672	1190.10127525582	138	2040.70844791024	1100.11787860727	147.084936148072	1550.77901795473	474.569011617051	134	687.415803234193	1112.04880700656	164.982272722244	1444.70017447621	626.344689626799	147.245970034358	835.713165908835	931.640132078785	179.862061541382	1135.27594991413	1133.75998977728	179.850311738774	1809.31900803214	1243.70512788389	146.061156926116	1495.44103740725	913.49940703205	168.954626296559	1720.40979929649	1178.4282468214	134.917596325812	2046.2196194456	776.018981108598	202.597934785894	1480.11814078833	1059.12499854345	139.954626296559	1679.64954550881
540.339459341419	142	878.645677542022	827.413793624272	224.102663425828	1060.15420262776	587.996995434898	149	835.75996330236	1237.77319314996	158.499394593396	1543.91741760525	1191.28394114728	138	2043.88791365903	1102.58218219504	147.123127125378	1555.78160885701	475.046692664342	134	688.755795962982	1114.70666803958	164.958493500288	1450.09707876771	626.70811157977	147.221755231254	836.608485170235	932.795124571245	179.847116177518	1137.76691701342	1134.14306555122	179.877417048997	1810.60047902936	1245.62260747781	146.04072345119	1499.38897607487	914.707785526883	168.964470975436	1723.59037853413	1180.6342277695	134.938843073884	2051.45972032401	777.035273221545	202.583201810626	1483.34984673549	1059.97358453891	139.964470975436	1682.00816491971
540.858966311358	142	880.226633509831	827.701110227449	224.058450728946	1061.26332288964	588.319319871979	149	836.872846961964	1239.08723683002	158.56095860435	1546.47127484614	1192.37877973202	138	2046.94967855359	1104.92113301988	147.162239137273	1560.66526810102	475.552578237908	134	690.132745088189	1117.14378388249	164.917770049098	1455.17111737749	627.072455097111	147.199362445678	837.589572483039	933.872401224693	179.819235418822	1140.26337075848	1134.48632925772	179.890814924649	1812.10812944233	1247.47183598531	146.023779221956	1503.45371485748	915.942826240794	168.963143752539	1726.9916438179	1182.87227533458	134.95927654881	2056.98073044423	778.079289945674	202.562895803798	1486.73538113449	1060.87440856089	139.963143752539	1684.61444040067
541.385001968144	142	881.553122281974	828.021267351256	224.029756697104	1062.16581753916	588.679925519945	149	837.763912659026	1240.44847175415	158.615222582951	1548.65542888856	1193.32079961466	138	2049.67137432166	1107.02916447451	147.196301052989	1565.19396753369	476.050799166951	134	691.474858040545	1119.1831968095	164.856613122982	1459.52324101794	627.414913392619	147.186282650826	838.581664173584	934.77663948812	179.774209448794	1142.56038647249	1134.73648441476	179.890814924649	1813.65674770179	1249.13051497045	146.011749802608	1507.3566437428	917.145301166418	168.948648821412	1730.47558384324	1185.06121988099	134.976220778044	2062.64625187096	779.119753533354	202.540772265566	1490.13355604543	1061.80801767952	139.949976044309	1687.4263181783
541.875960711719	142	882.596914389046	828.32857413109	224.011749802608	1062.85492154207	589.04639808867	149	838.413522150871	1241.74611644381	158.657932433765	1550.44063049526	1194.06661497444	138.001327222897	2051.85503446971	1108.83051439753	147.21954192883	1569.16229409073	476.507772615224	134	692.710348021878	1120.70066642652	164.774209448794	1462.82677398665	627.697831901469	147.187962414309	839.478495192187	935.418621410333	179.710504941797	1144.43498292366	1134.83309932151	179.8760898261	1815.00805216423	1250.48519138211	146.004650252251	1510.79155194809	918.258990471175	168.919788573231	1733.8735555052	1187.12031616365	134.988250197392	2068.25357116111	780.125089657176	202.522650320826	1493.38017912684	1062.75167331313	139.925766048379	1690.35777447057
542.289458447522	142	883.365853590179	828.572101357548	223.998672777103	1063.3492876493	589.382048926936	149	838.836132236106	1242.86934670832	158.684093991723	1551.84690261046	1194.59006827252	138.004650252251	2053.34895062859	1110.27990212625	147.227794757601	1572.41613600623	476.891201754371	134	693.769560661086	1121.63459584991	164.673127237637	1464.87655988995	627.874390666332	147.207988804398	840.16264355962	935.726631977096	179.629883730417	1145.68611175474	1134.71835694143	179.84698870942	1815.91104992586	1251.44698339838	146.001327222897	1513.48000947768	919.233138194193	168.8760898261	1737.00708729013	1188.97158264976	134.995349747749	2073.56034189877	781.060403256725	202.514233462116	1496.3105301282	1063.67392094558	139.892489880959	1693.28629402529
542.588595944204	142	883.891143551805	828.704248260962	223.983599945141	1063.67739011927	589.652134288968	149	839.0688856268	1243.7248822321	158.688915267487	1552.92187703818	1194.8849518596	138.011749802608	2054.07324323731	1111.36585250535	147.21954192883	1574.87088510353	477.176428131071	134	694.595594894293	1121.99312955226	164.559229858837	1465.61918823661	627.902526206061	147.246224026133	840.526905718648	935.665789301412	179.537202100069	1146.16842269587	1134.35184009638	179.803872670298	1816.14889609247	1251.97201203071	146	1515.21840233093	920.024089097972	168.816687837942	1739.69565067892	1190.54773247409	134.997345554206	2078.30065470096	781.887404641767	202.518530418733	1498.76463504256	1064.53712474238	139.852216862506	1696.05381878679
542.748716146809	142	884.209952362275	828.689744227202	223.958493500288	1063.86474318929	589.827360676644	149	839.154874169157	1244.25102422357	158.669000479912	1553.71470018967	1194.95745905386	138.023779221956	2054.02761748767	1112.1006923422	147.196301052989	1576.51398662914	477.344375644721	134	695.153805525818	1121.8389123793	164.440770141163	1465.15038853658	627.75642283205	147.300461812289	840.499758031986	935.241126917182	179.439442918267	1145.81860429177	1133.72088244583	179.74857598502	1815.58122784953	1252.06893807704	146	1515.91242353138	920.591421737748	168.742715744182	1741.77509664446	1191.78827783115	134.994022524852	2082.22117545199	782.560902247238	202.532717171168	1500.60282925797	1065.28895804373	139.808545640224	1698.48032609962
542.756836821312	142	884.349639993045	828.50490937455	223.916442826201	1063.91474251057	589.886566002643	149	839.128112864367	1244.41507881724	158.623455822532	1554.2501375889	1194.82654260437	138.04072345119	2053.29108698558	1112.51701146772	147.162239137273	1577.39671808525	477.387667307015	134	695.431851911519	1121.27542073575	164.326872762363	1463.692731042	627.436269408741	147.364418411176	840.066866508121	934.501268732604	179.342923045982	1144.67465521669	1132.84632105655	179.684091291949	1814.18273094042	1251.79697500261	146	1515.60439349505	920.899504304717	168.655749731121	1743.11019631101	1192.64516762762	134.983599945141	2085.10982327115	783.030619922427	202.54736282192	1501.71005306748	1065.86830075388	139.763607583574	1700.37612497522
542.614818902045	142	884.321165662618	828.141020785801	223.850635647834	1063.8070365089	589.818140298738	149	839.004419692108	1244.21633472447	158.555644971622	1554.51625832865	1194.52009704124	138.061156926116	2052.00109995532	1112.65650748867	147.123127125378	1577.61404356055	477.31236048341	134	695.444199964545	1120.42427157485	164.225790551206	1461.54848766174	626.970235603577	147.428390950576	839.274019917216	933.530747882227	179.252634003568	1142.87515090907	1131.78383647349	179.61276847767	1812.04879377426	1251.25772387317	146	1514.46355616127	920.925757172351	168.560557081733	1743.62202133727	1193.0919083883	134.964470975436	2086.83931225668	783.250766799438	202.549222625958	1502.01177822777	1066.2164688224	139.720517736897	1701.57186970951
542.331225557427	142	884.116331747361	827.597175130333	223.756482171038	1063.49477055637	589.620283957484	149	838.777900253503	1243.67425703128	158.470848709501	1554.46127113839	1194.07752603632	138.082403674188	2050.34487896889	1112.56973556251	147.084936148072	1577.29976655003	477.136678893983	134	695.230899140513	1119.41423230827	164.143386877018	1459.06242805387	626.409089313781	147.481650160186	838.22266953267	932.436809152322	179.17156235945	1140.64544448726	1130.61319548731	179.537983110764	1809.38388568447	1250.57375635582	146	1512.76101987111	920.668056701071	168.464125122827	1743.31156809119	1193.13645315075	134.935497326854	2087.4009718714	783.191623145579	202.523432120779	1501.49313777618	1066.28913762498	139.683140032737	1701.9511021692
541.925540645576	142	883.724522180543	826.882598158169	223.631620737925	1062.92631101428	589.303635896928	149	838.43697798821	1242.82468408558	158.37828599215	1554.02323439817	1193.54532835223	138.101082211157	2048.52413821375	1112.31001957936	147.052473253798	1576.60539195005	476.890014720673	134	694.850337883379	1118.36816229496	164.082229950902	1456.57501588888	625.815906037989	147.513690077	837.053259002994	931.336369900199	179.100130951944	1138.27330468765	1129.42779627339	179.462016889236	1806.47721435957	1249.87205552231	146	1510.83783327971	920.154486784736	168.374766521834	1742.27079921384	1192.82530707278	134.898119622694	2086.91546284785	782.851312975842	202.460920051007	1500.21283850656	1066.06994988424	139.654248784937	1701.47225882509
541.424562512891	142	883.149531987305	826.015000660165	223.478327130832	1062.06717301649	588.88884532844	149	837.976517261526	1241.71568713333	158.28747653407	1553.15917765583	1192.9774228548	138.113897378801	2046.74995770023	1111.93836170486	147.028429474207	1575.70562841372	476.608901273942	134	694.377123974237	1117.40359354664	164.041506499712	1454.40591274334	625.251924861423	147.518252415872	835.917111352482	930.340848704203	179.038160752682	1136.06709568658	1128.31773987705	179.38723152233	1803.64616009029	1249.26238114057	146	1509.04408909054	919.45170698631	168.301244860811	1740.70162072852	1192.25457673868	134.855112176798	2085.6464504512	782.269265814977	202.362514248273	1498.32485238224	1065.58355958009	139.635482334591	1700.20701750475
540.858730901349	142	882.424265230278	825.019733966659	223.303360739293	1060.92290711595	588.403193671375	149	837.413031277305	1240.40435044275	158.207988804398	1551.88021051611	1192.43614680229	138.118459717673	2045.22079931755	1111.52573195405	147.013077025505	1574.78984899215	476.331349291327	134	693.893418680901	1116.63243908234	164.019054500653	1452.83201739875	624.770205794406	147.494465327829	834.951704886825	929.54986376131	178.985544000221	1134.31654431259	1127.36426180511	179.315908708051	1801.19091464533	1248.83505050124	146	1507.69418157995	918.662296120983	168.249569773162	1738.89239595303	1191.56162099466	134.811863862404	2083.96215827552	781.527393375659	202.240197706898	1496.07146217433	1064.89748669035	139.626814692837	1698.33072472342
540.265805545706	142	881.616561256655	823.93322277312	223.117482266015	1059.54937993426	587.879448962443	149	836.791791184742	1238.96150512047	158.148037129269	1550.26698047807	1191.98060742105	138.113897378801	2044.11351373457	1111.14846184438	147.004650252251	1574.05250528062	476.09339068339	134	693.482788915009	1116.15260031585	164.010627727398	1452.07538414633	624.408377611902	147.448396710441	834.266347160785	929.039846433472	178.942702770665	1133.26012182885	1126.62589122756	179.25142401498	1799.35921864599	1248.6487191903	146	1507.03281683751	917.913475947877	168.221488032368	1737.18778399911	1190.90727224302	134.771943384538	2082.29522709002	780.741107585016	202.114428346064	1493.76436897225	1064.11395076583	139.625930982818	1696.11030800727
539.685179611874	142	880.825549932915	822.801529196071	222.934446813408	1058.05515799737	587.349969267029	149	836.183714159493	1237.46843762185	158.113108723215	1548.47058563235	1191.66431159066	138.101082211157	2043.57388543011	1110.88199927768	147.001327222897	1573.68047402958	475.923951013212	134	693.224587165941	1116.04206987434	164.014404248402	1452.28783057124	624.189013423374	147.390315411498	833.929448954865	928.859813211501	178.910667591451	1133.04647264073	1126.14015752224	179.196127329702	1798.30884908143	1248.73260969326	146	1507.19861831043	917.33807857053	168.214040748598	1735.9331058148	1190.45328170312	134.737886206423	2081.07204122514	780.040039267551	202.008057261221	1491.73887082703	1063.35257927368	139.628906278759	1693.85958427811
539.156833553722	142	880.163601663758	821.680186654582	222.767119409	1056.58056962808	586.845934892776	149	835.671508668746	1236.0173489215	158.104681949961	1546.68418750641	1191.52598779342	138.082403674188	2043.69321826199	1110.79159881321	147	1573.81334953397	475.842708345582	134	693.181405120177	1116.34114763078	164.028429474207	1453.51843913685	624.127045261939	147.332645089824	833.97179628632	929.027885706348	178.89075287345	1133.71426816944	1125.92452703094	179.15301129058	1798.09488009777	1249.0896449097	146	1508.21099404893	917.047894028946	168.221669355703	1735.40994434238	1190.33099132005	134.710519397478	2080.6396939142	779.542851476526	201.937949601843	1490.29335754903	1062.72789832143	139.633116077046	1691.88049405629
538.714925139693	142	879.727854037198	820.625142298408	222.624880469371	1055.26804655084	586.391010783856	149	835.326831233238	1234.69543755413	158.119607655062	1545.09867612312	1191.5728610836	138.061156926116	2044.48196792999	1110.90366231164	147	1574.50935494313	475.85725782096	134	693.391716651113	1117.02776489968	164.052473253798	1455.68385184349	624.230596429966	147.285620254426	834.389937135853	929.523835061267	178.882867505224	1135.18617557247	1125.97534614622	179.1239101739	1798.67388840271	1249.69044993786	146	1509.97222597481	917.111701926087	168.236029897067	1735.78193993912	1190.61548621207	134.688334459362	2081.20397302007	779.331155720342	201.907048111854	1489.63084969911	1062.32428643187	139.636097266889	1690.40298643161
538.383325084349	141.998672777103	879.572696733838	819.68676609213	222.511939862379	1054.22246820055	586.003277077412	149	835.188955512498	1233.57604097429	158.149538075452	1543.8472368608	1191.78490336811	138.04072345119	2045.85318064639	1111.20494596282	147	1575.71392707948	475.963340385873	134	693.859020931812	1118.01551773786	164.084936148072	1458.55162770226	624.501177535414	147.254764199788	835.151195779572	930.283982857583	178.8861026212	1137.26877016362	1126.26556802957	179.107857852454	1799.90906781794	1250.47435159721	146	1512.27461879042	917.534105890951	168.250084374229	1737.05267994786	1191.30110806564	134.668280544424	2082.77606619601	779.42942394099	201.906129011288	1489.81533459353	1062.17262393884	139.636097266889	1689.53408552712
538.170102298606	141.995349747749	879.693874774866	818.897827379198	222.427003714307	1053.48822235543	585.69088033273	148.998672777103	835.253624179885	1232.69891832798	158.184813108242	1542.97326554248	1192.11349134517	138.023779221956	2047.62775599354	1111.636096467	147	1577.25970028139	476.144786757723	134	694.55206271981	1119.15680148418	164.123127125378	1461.75688584222	624.929912202388	147.239818835924	836.194402394637	931.20886905028	178.898917788843	1139.68308313375	1126.74792726323	179.103207600203	1801.59406826593	1251.35329277522	146	1514.83398989792	918.257681585245	168.257463541327	1739.06556867967	1192.30438758299	134.647499336085	2085.1677342187	779.805511412712	201.913324944535	1490.75989779044	1062.24789616469	139.631788854149	1689.23961481037
538.066972226368	141.988250197392	880.020427399654	818.272142510192	222.363016719226	1053.03088265233	585.456850979721	148.995349747749	835.46734188362	1232.06821198064	158.214979589957	1542.40922039586	1192.48858548324	138.011749802608	2049.53676566062	1112.09904348692	147	1578.87841234566	476.376093744731	134	695.39962061939	1120.263877731	164.162239137273	1464.8461532535	625.488873870077	147.236480329804	837.431675894976	932.168578939408	178.917596325812	1142.10447631017	1127.34926642135	179.106182896145	1803.48265945125	1252.21367964453	146	1517.33344252665	919.171073298612	168.255703041147	1741.53668472168	1193.47641923775	134.622934365833	2088.02918545784	780.377213423414	201.905580113575	1492.25398741494	1062.47424130807	139.622928803612	1689.36098537428
538.049235300106	141.974893555147	880.436585585636	817.797963892178	222.309936795125	1052.75558067909	585.296336116398	148.988250197392	835.746325939798	1231.64878800582	158.232357096474	1542.00363311907	1192.84142564205	138.004650252251	2051.27160727145	1112.48740495581	147	1580.25760059378	476.625233478166	134	696.301549621432	1121.15329507344	164.196301052989	1467.35812842574	626.129330548763	147.237269206585	838.75379015334	933.028381895219	178.937515850987	1144.22205940232	1127.98182808331	179.112832013765	1805.32384315901	1252.94006965271	146	1519.47916761019	920.134809817818	168.244642811461	1744.11332439685	1194.63164156996	134.593372447021	2090.91329911611	781.034069733011	201.865289939668	1494.00822365089	1062.74196300943	139.608203705062	1689.6534410895
538.078622346011	141.954626296559	880.808232570183	817.441338045423	222.257463541327	1052.53342637667	585.196510149019	148.976220778044	835.997269860092	1231.36940320613	158.232357096474	1541.56207362532	1193.10966786318	138.001327222897	2052.54295925201	1112.70206484753	146.998672777103	1581.10894595221	476.858536271631	134	697.146962529506	1121.67663176553	164.21954192883	1468.91625583628	626.782614560569	147.233772232749	840.040501359657	933.668836017663	178.954626296559	1145.79515252361	1128.54979595118	179.118547631051	1806.90623663498	1253.4301516748	146	1521.05643145126	921.013846100798	168.225964274493	1746.4533664583	1195.59580149889	134.558014308027	2093.37705335514	781.666031061877	201.784474987099	1495.72757530226	1062.94358061076	139.585308193126	1689.85692328796
538.110209726618	141.927093271276	881.016747418063	817.156301658035	222.195850620252	1052.23810896396	585.139184623769	148.95927654881	836.138374845826	1231.14302892581	158.214979589957	1540.90137292633	1193.25056593221	138.001327222897	2053.11868065184	1112.67657165374	146.995349747749	1581.21784602683	477.043759164484	134	697.82602079473	1121.75039447247	164.227794757601	1469.2881642681	627.370044845714	147.220869151727	841.174659457998	934.00765133322	178.964470975436	1146.69142908565	1128.96497620383	179.11978694057	1808.08059612259	1253.6109276726	146	1521.95994649455	921.704236517932	168.202962588463	1748.296643623	1196.23849638257	134.518523563101	2095.07717305604	782.18698967492	201.669353775546	1497.17063937755	1062.99656554465	139.553252383689	1689.76039105157
538.101007283694	141.892489880959	880.982276821752	816.894304557425	222.118983212199	1051.77741526813	585.10083750875	148.938843073884	836.116975712799	1230.88315146983	158.183485885345	1539.89053128415	1193.24275587761	138.004650252251	2052.88058701253	1112.38557911439	146.988250197392	1580.49693767764	477.154771598388	134	698.255348548838	1121.3630515201	164.21954192883	1468.42923090991	627.817600575958	147.196301052989	842.059120621866	934.016031028399	178.963143752539	1146.90087469371	1129.16533536719	179.113897378801	1808.7820338801	1253.46064844849	146	1522.20237354629	922.15290367018	168.178400051946	1749.50561697286	1196.50175853301	134.47725042494	2095.82862936498	782.551236307535	201.5352032347	1498.19338732061	1062.86722920182	139.510861907919	1689.24745874716
538.017168814467	141.853544085403	880.674760052596	816.613527919086	222.02528016814	1051.10953790423	585.05490830374	148.917596325812	835.913050977041	1230.51908507777	158.143560600305	1538.47570660189	1193.08131189546	138.011749802608	2051.82809746871	1111.84372296179	146.976220778044	1578.98376888174	477.174235883652	134	698.386809309257	1120.56267778833	164.196301052989	1466.46510469324	628.07081793885	147.162239137273	842.629791243642	933.714961105305	178.948648821412	1146.5191510619	1129.12223116864	179.09975498826	1809.02100551122	1253.00456097996	146	1521.8931213281	922.357846740858	168.153988742237	1750.0778842023	1196.40133449207	134.436386949857	2095.62971275148	782.756968254994	201.403031762517	1498.76135289004	1062.57182641989	139.45734948153	1688.31171964779
537.839312311719	141.813195892475	880.109753888257	816.286039865286	221.91681327729	1050.2410341771	584.976125787837	148.898917788843	835.532936940863	1230.00799737909	158.101880377306	1536.67420927407	1192.77452355467	138.023779221956	2050.07809845001	1111.09437393551	146.957949325913	1576.82815560621	477.095155238817	134	698.215854966196	1119.43724042084	164.160911914376	1463.65243811609	628.107316153077	147.123127125378	842.862890204022	933.172072481512	178.921115796128	1145.71307126421	1128.85001869015	179.077753421938	1808.8699994091	1252.31432486547	146	1521.1996779594	922.36567494801	168.128970210762	1750.13144050191	1196.02044551991	134.396177448418	2094.65450503815	782.843708724719	201.294147358912	1498.94231209828	1062.1725572308	139.393644974534	1687.0493794839
537.566921386603	141.775357386182	879.331070262205	815.903117371143	221.798786836899	1049.21148556203	584.845785006278	148.8861026212	835.000082103773	1229.34650454753	158.064502673146	1534.55511324414	1192.33684094729	138.04072345119	2047.82671545654	1110.19574891857	146.934192821633	1574.24868376217	476.921878589534	134	697.781239375505	1118.08596137362	164.118476873128	1460.31017922687	627.938606260632	147.084936148072	842.773598058321	932.479015974502	178.88074007835	1144.66762528563	1128.39738724463	179.049407123508	1808.42935696442	1251.48990075259	146	1520.29699747389	922.246555537509	168.102409434054	1749.85648975321	1195.48007298922	134.355833993091	2093.20057932462	782.872150148571	201.223096771889	1498.86946003658	1061.75237271856	139.322837442411	1685.6202168013
537.214258592634	141.744296958853	878.391916237554	815.468755731479	221.677162557589	1048.06891748971	584.655133550253	148.881540282327	834.342163231726	1228.56022673619	158.035529024564	1532.20947427696	1191.79025225429	138.061156926116	2045.31536544571	1109.21288928143	146.905846523204	1571.49039801729	476.670929190783	134	697.154678122788	1116.60695645843	164.073186345464	1456.76468220206	627.608369591087	147.052473253798	842.412378826478	931.73433517647	178.82843764055	1143.54554669749	1127.83760087953	179.016944229234	1807.80172874576	1250.64083917998	146	1519.33037831146	922.076605213706	168.071981094477	1749.47219651388	1194.91214338895	134.314324793605	2091.63106556674	782.907596234571	201.196643179338	1498.70277077777	1061.39124208951	139.249315781388	1684.20478934269
536.808597391601	141.723863483927	877.351671705634	814.997438219747	221.558252407179	1046.86218779066	584.408126599278	148.886102621199	833.593672222216	1227.70323289592	158.016400054859	1529.74252838422	1191.1656254589	138.082403674188	2042.78680810119	1108.21092594186	146.875138566887	1568.78772122493	476.369712092035	134	696.431052252002	1115.09193587403	164.028694031842	1453.30508161587	627.181216070112	147.029756697104	841.854670390137	931.023522561007	178.766494966138	1142.46016337277	1127.25115599237	178.983055770766	1807.06989023091	1249.86522569287	146	1518.39443829318	921.921277560872	168.03737770416	1749.17929592576	1194.43774270364	134.27053500461	2090.31170507838	783.002963337398	201.213310433083	1498.59123842919	1061.14753906597	139.179089624869	1682.96135345771
536.382972351391	141.71673293395	876.258655403	814.507478451043	221.446747616311	1045.62032589278	584.12165277562	148.898917788843	832.787530739096	1226.84719797702	158.005977475148	1527.24679702797	1190.50566434338	138.101082211157	2040.46727946214	1107.25631706573	146.84537917001	1566.35021354453	476.053367974407	134	695.717685744979	1113.62943320002	163.98637880012	1450.17587128408	626.731126931322	147.019054500653	841.192637145855	930.412243504979	178.697800405207	1141.47916212973	1126.71146329781	178.950592876492	1806.29769633777	1249.23991835212	146	1517.5432338449	921.826442999731	168	1749.13546364898	1194.15371778033	134.22499034723	2089.56099237492	783.188061738136	201.264319706518	1498.64722419218	1061.04697151089	139.118280432165	1681.99892132009
535.971064631451	141.723863483927	875.157768002862	814.014128615949	221.345577491776	1044.35844630978	583.821700279285	148.917596325812	831.961513205063	1226.06570229005	158.001327222897	1524.80652779211	1189.87027632777	138.113897378801	2038.53766114441	1106.42129505324	146.820383356211	1564.3433859593	475.763977940195	134	695.117921319664	1112.31655203371	163.947269847138	1447.56851946639	626.329709707761	147.02105030711	840.526596340937	929.944893890026	178.625037037203	1140.63854023503	1126.2756837564	178.922246578062	1805.53826277124	1248.81638471861	146	1516.81071067115	921.818557803908	167.96262229584	1749.43468890059	1194.12655817141	134.179727274843	2089.60490804099	783.467987144274	201.336435658577	1498.92873100712	1061.08427364016	139.070480148294	1681.36048314204
535.605867864512	141.744296958853	874.095437511781	813.532222983011	221.257284255818	1043.08539619957	583.542766883316	148.938843073884	831.163446852113	1225.43260490155	158	1522.50432146276	1189.32925551905	138.118459717673	2037.14248209536	1105.78119089873	146.803698947011	1562.89695883224	475.54329316799	134	694.724689934825	1111.2573904812	163.909169552557	1445.64043406165	626.036480779396	147.036856247461	839.953701764014	929.64603807759	178.552301124476	1139.96551853529	1125.97937627989	178.90024501174	1804.83863779288	1248.6220203118	146	1516.23200296438	921.90827689182	167.92934612842	1750.11565441946	1194.39678758269	134.136611235721	2090.56185015781	783.82524488585	201.418230228726	1499.4439310283	1061.23118194765	139.038183470358	1681.03144120682
535.315390351013	141.775357386182	873.123159438747	813.074142061076	221.183312162058	1041.81379145863	583.319257554741	148.95927654881	830.450101107941	1225.01042590895	158	1520.42065139583	1188.96029655594	138.113897378801	2036.38095408506	1105.41383321303	146.797835577687	1562.10457670049	475.4297669457	134	694.607334734733	1110.56572703913	163.870488314637	1444.52706868951	625.896951787914	147.064502673146	839.563512435442	929.538986428943	178.484555122985	1139.510525078	1125.84430373383	178.8861026212	1804.26551318551	1248.67800085921	146	1515.87600902578	922.099785528034	167.903568041094	1751.1741843135	1194.98286607264	134.098803729047	2092.44278018308	784.23067308801	201.499674210136	1500.16453834932	1061.44995210278	139.021050307109	1680.9528815324
535.122363275775	141.813195892475	872.299562828945	812.65315414984	221.1239101739	1040.57014809915	583.183520201891	148.976220778044	829.885824181168	1224.84644020306	158	1518.64100028402	1188.83109610731	138.101082211157	2036.32369635818	1105.38442866682	146.803698947011	1562.03060205469	475.453113665368	134	694.81028432006	1110.34511078406	163.828979115151	1444.35118000954	625.942327529181	147.103207600203	839.431873482921	929.650734396656	178.426314141385	1139.35713124496	1125.88406953007	178.881540282327	1803.9078195588	1249.00613854239	146	1515.84954399588	922.39943452353	167.887429844096	1752.58074676897	1195.89160478708	134.068461624161	2095.16592156728	784.655698117686	201.57457980423	1501.04037733268	1061.70853017971	139.019054500653	1681.04722366625
535.042256014145	141.853544085403	871.690471241103	812.285584809822	221.078884203872	1039.40004899684	583.158861490001	148.988250197392	829.535824614576	1224.97065970495	158	1517.25489740869	1188.99567943979	138.082403674188	2037.00510646692	1105.7418624888	146.820383356211	1562.70668949371	475.632132853363	134	695.347891417514	1110.67954829467	163.784854331646	1445.21107030077	626.1907592795	147.148210852555	839.617145345346	930.013838282507	178.382411021561	1139.61740329834	1126.11075605933	178.8861026212	1803.87367559922	1249.63027205382	146	1516.28777879175	922.815942931949	167.881540282327	1754.30650419447	1197.11429926224	134.048028149234	2098.59261452421	785.076494589262	201.640306310128	1502.02361207763	1061.98633167462	139.029756697104	1681.24584770828
535.085280615495	141.892489880959	871.350264155535	811.993750160092	221.046700926337	1038.35600671732	583.263942525303	148.995349747749	829.448156008519	1225.39928050371	158	1516.33245102964	1189.48397027961	138.062484149013	2038.43541381612	1106.50822045546	146.84537917001	1564.13496813281	475.972938258921	134	696.209219009869	1111.61569167056	163.739196273865	1447.17379142692	626.646541653532	147.195235687953	840.152692981388	930.660341320837	178.357415207763	1140.40841760769	1126.53370963977	178.898917788843	1804.27299232867	1250.57138417055	146	1517.32331245967	923.361518296318	167.886102621199	1756.32771379253	1198.63098397511	134.040179276815	2102.55059049854	785.483869996292	201.696906459593	1503.0774955145	1062.27822278801	139.052473253798	1681.50047673069
535.254971843712	141.927093271276	871.318812177482	811.801922843193	221.025106444853	1037.4940172508	583.505156549173	148.998672777103	829.650576528803	1226.13106902106	158	1515.92418273996	1190.29761806971	138.045373703441	2040.58250508936	1107.67014124496	146.875138566887	1566.27424050195	476.467599889771	134	697.359526655889	1113.1506551815	163.695955200381	1450.24479339641	627.299209168786	147.238758811913	841.044225521253	931.610749333582	178.353547298612	1141.82595402563	1127.15979075335	178.917596325812	1805.19715684606	1251.8385774984	146	1519.06139750751	924.052799914451	167.898917788843	1758.63749521158	1200.41446320053	134.048606050069	2106.87122158148	785.885504795563	201.744279028403	1504.18757694216	1062.59831009826	139.084936148072	1681.79448309154
535.54769698952	141.954626296559	871.608391772131	811.731807317728	221.011749802608	1036.85618079	583.881245061948	149	830.140405052637	1227.15165802279	158	1516.04313048261	1191.41472849986	138.035529024564	2043.37096286067	1109.18702241068	146.905846523204	1569.03906573347	477.096652416592	134	698.744838154078	1115.236934794	163.660138346707	1454.35562319772	628.120107916223	147.273080547663	842.264899653544	932.856158374324	178.37056670232	1143.90628888444	1127.97795405226	178.938843073884	1806.68969954275	1253.41093756638	146	1521.53970590944	924.901467197747	167.918923548709	1761.24408914279	1202.42457210627	134.075130400544	2111.41754102906	786.302618615104	201.783960386032	1505.36338063437	1062.96732859005	139.123127125378	1682.14362196462
535.952650607276	141.974893555147	872.201850746018	811.796001812181	221.004650252251	1036.46471750675	584.381126771456	149	830.888508615225	1228.42917022006	158	1516.66641717757	1192.79027754223	138.035529024564	2046.67543955682	1110.99115994064	146.934192821633	1572.29680480927	477.82909554564	134	700.298913789274	1117.78490037737	163.636897470866	1459.3517580672	629.064175460888	147.29351402259	843.74916379004	934.354730514276	178.404079972099	1146.60098753594	1128.96265436539	178.95927654881	1808.7140834631	1255.23917745175	146	1524.70192040501	925.910914589699	167.943493326134	1764.15443547355	1204.6125375077	134.119607655062	2116.08634110421	786.763647109469	201.815622472906	1506.6267675052	1063.40921778431	139.162239137273	1682.58066173979
536.450173631829	141.988250197392	873.054185764257	811.992281875808	221.001327222897	1036.31251827845	584.98334231183	149	831.841570245121	1229.91777980705	158.001327222897	1517.73536948941	1194.36047704823	138.046700926337	2050.32054314915	1112.99665845173	146.957949325913	1575.87421228523	478.626895216732	134	701.946389345849	1120.67511469812	163.630399580052	1465.00380075312	630.070445012764	147.297383264146	845.404731993017	936.025975402555	178.447291790686	1149.77587350966	1130.0628107986	178.976220778044	1811.16332312426	1257.23893620234	146	1528.40432241621	927.072222722827	167.971026351418	1767.35641825194	1206.92309599624	134.180416847766	2120.80335130353	787.297027985114	201.838706559718	1507.99819987849	1063.94205809829	139.196301052989	1683.13718844657
537.010248856425	141.995349747749	874.096840842895	812.295695387564	221	1036.36349473124	585.654414863333	149	832.931748078343	1231.54777556825	158.004650252251	1519.16065911423	1196.05132467048	138.068461624161	2054.09855398323	1115.1103437897	146.976220778044	1579.57506099642	479.448114172731	134	703.609904539938	1123.77095843132	163.642781470414	1471.02697089178	631.069886145495	147.284568096502	847.117851626425	937.763934795833	178.489379098522	1153.21994448062	1131.21003776859	178.986922974495	1813.85808935063	1259.30445293168	146	1532.41995346974	928.35488097316	168	1770.78721199417	1209.28638193843	134.252638810742	2125.48066746025	787.916660461335	201.851975288585	1509.46822191452	1064.56609247568	139.21954192883	1683.80895062563
537.593605383791	141.998672777103	875.246448680959	812.66156066888	221	1036.55322987355	586.351261684662	149	834.082773555991	1233.23200547414	158.011749802608	1520.82619999769	1197.77684515408	138.098803729047	2057.79408692274	1117.23083161035	146.988250197392	1583.19596978704	480.250426308207	134	705.215295440559	1126.92068966754	163.67348942673	1477.10944125501	631.993886649307	147.257457979105	848.771179807773	939.448617224554	178.521746261223	1156.67995504685	1132.32461910845	178.990699495499	1816.58432934676	1261.31774981998	146	1536.47347043155	929.708202552061	168.027646425685	1774.32275717268	1211.62055945579	134.328609769871	2129.99036293737	788.615632189821	201.851433813984	1510.98720059474	1065.26226384645	139.227794757601	1684.54600403192
538.154592312879	142	876.406061742019	813.028945131471	220.998672777103	1036.79208036847	587.022517223586	149	835.209398499938	1234.86479681624	158.023779221956	1522.58575129061	1199.44653899076	138.136611235721	2061.19222091575	1119.2509855014	146.995349747749	1586.53107353599	480.99295466358	134	706.690408735108	1129.96153829502	163.719213231676	1482.92675341329	632.782043103876	147.220340094979	850.254413086536	940.965514246701	178.536923086754	1159.89302036467	1133.32911811309	178.986922974495	1819.12018322689	1263.16427701565	146	1540.27363340681	931.0602525371	168.050529198718	1777.76977713704	1213.82827258199	134.399696918734	2134.13363188018	789.361503197346	201.834039152013	1512.45032738793	1065.99035953597	139.21954192883	1685.2374783685
538.64483745701	142	877.472506949399	813.330237991781	220.994022524852	1036.97623067886	587.616148162769	149	836.224518390908	1236.33255362601	158.04072345119	1524.26788354062	1200.97068059558	138.178400051947	2064.10123469911	1121.05801264637	146.998672777103	1589.38436416756	481.640503247733	134	707.968554847394	1132.72038999232	163.774463440568	1488.16041534061	633.387960661137	147.179727274843	851.475667210627	942.219233625676	178.531438034604	1162.62465310424	1134.15929136845	178.976220778044	1821.27196003454	1264.74539542086	146	1543.54899061686	932.323741553074	168.064676396433	1780.88040861065	1215.80079116892	134.456566433008	2137.635110759	790.098173497381	201.795456196866	1513.70736548827	1066.6936626963	139.196301052989	1685.72148887226
539.017491116721	142	878.34404323874	813.499670333654	220.982272722244	1037.00098923473	588.081084992663	149	837.044756888689	1237.51807098536	158.061156926116	1525.69025059434	1202.25982176443	138.220340094979	2066.36110559803	1122.53399692639	147	1591.57162302161	482.162881666282	134	708.989223750523	1135.01645301911	163.831332954842	1492.50997235304	633.782303930481	147.142588710868	852.361915462783	943.141869251755	178.505429382142	1164.69271285828	1134.77020538311	178.95927654881	1822.89023442921	1265.98460366932	146	1546.07579719619	933.403705101943	168.065553186592	1783.39240783023	1217.42292523022	134.492443328927	2140.18114770101	790.752574126812	201.733485997604	1514.58600220404	1067.3046940659	139.162239137273	1685.81759149239
539.233054435773	142	878.924678021654	813.483950183263	220.958493500288	1036.77443383059	588.375383988554	149	837.591500571885	1238.31384412261	158.082403674188	1526.67028728631	1203.23674585636	138.257457979105	2067.84586904261	1123.56345551948	147	1592.9292727505	482.536891469982	134	709.697724916044	1136.67548694272	163.880392344938	1495.7075021814	633.953233427183	147.116531006803	852.865486001715	943.698847953817	178.464443469666	1165.98759892201	1135.14380726965	178.938843073884	1823.89373746032	1266.83343472803	146	1547.70656022281	934.215839252216	168.049394705654	1785.07707157433	1218.59599276516	134.504224131155	2141.48312761845	791.254766674786	201.648020792784	1514.93054742636	1067.76372919277	139.123127125378	1685.36726348484
539.259728750825	142	879.131829887249	813.247702993814	220.917770049098	1036.23016086223	588.466730321577	149	837.799971794291	1238.63391931699	158.101082211157	1527.0488711142	1203.83739822991	138.284568096502	2068.46313225807	1124.04421172777	146.998672777103	1593.32330849855	482.748263676244	134	710.05168740806	1137.54230324327	163.913119796848	1497.52882392306	633.901169554016	147.107313678079	852.96586646324	943.879818712665	178.414877948015	1166.47701303056	1135.28173646201	178.916269102915	1824.27753996087	1267.26581108417	146	1548.3839532896	934.695331691331	168.016579340367	1785.79481370039	1219.24876714974	134.494727185691	2141.36070903334	791.544800560583	201.541502581081	1514.64069520743	1068.02674847459	139.084936148072	1684.28559184864
539.08057220194	142	878.899290035765	812.780923662797	220.856613122982	1035.33258060674	588.340170677088	149	837.618267492955	1238.42922549612	158.115224601697	1526.70445396299	1204.0220597522	138.297383264146	2068.15543278304	1123.90392893253	146.995349747749	1592.66016418481	482.793644620595	134	710.025491905496	1137.50205775281	163.921637252827	1497.80302609642	633.63808810082	147.119630372738	852.666113928331	943.693540972745	178.364011326338	1166.18567281683	1135.20397949513	178.892940313696	1824.09733707712	1267.27377544618	146	1548.12683055789	934.808619276688	167.969009555599	1785.52229053294	1219.35211195655	134.470936622879	2139.78671213943	791.588957938219	201.418392611157	1513.6952250983	1068.07541433586	139.052473253798	1682.5837712292
538.690341644907	142	878.18735474877	812.09662766789	220.774209448794	1034.0826592538	587.997801221166	149	837.017777517307	1237.69143635094	158.123109969924	1525.57610260051	1203.78175898816	138.29351402259	2066.90472515864	1123.11493734868	146.986922974495	1590.90343097631	482.681738600216	134	709.617253841645	1136.50110164427	163.900042771343	1496.43036511467	633.179435210113	147.154089073469	851.992800140187	943.149802689975	178.31702604566	1165.17775766905	1134.93402171836	178.868375343444	1823.45438644743	1266.85423997359	145.998672777103	1547.01697859262	934.559046267261	167.911618850664	1784.36067149465	1218.92565884881	134.442700751918	2136.91227076227	791.384212557973	201.284039039754	1512.16466042911	1067.92081072826	139.028429474207	1680.37732035798
538.102770446439	141.998672777103	876.985291105144	811.233806032875	220.673127237637	1032.514338296	587.463630655465	149	835.99849320222	1236.4694220069	158.125647181409	1523.67056626154	1203.13648377398	138.273080547663	2064.74260396021	1121.6999475491	146.971570525793	1588.08435615876	482.431057941096	134	708.854099986935	1134.55312671959	163.845985395584	1493.39904911799	632.547669383154	147.207783656711	850.989223742451	942.263532483262	178.277203780994	1163.52986231282	1134.50256439321	178.841361005512	1822.46754764014	1266.0186989102	145.995349747749	1545.16908959239	933.983407232739	167.849696806475	1782.50833712654	1218.03066686099	134.418646602932	2133.02992303882	790.956517828436	201.143560600305	1510.19435719935	1067.59667248164	139.013077025505	1677.85376397043
537.346046435442	141.995349747749	875.318558760943	810.250090992648	220.559229858837	1030.69184614353	586.780238438105	149	834.595813144455	1234.85810859873	158.124861433113	1521.06983141177	1202.14105744837	138.238758811913	2061.75652402835	1119.7374680912	146.947526746202	1584.30658195183	482.072100725313	134	707.789746861928	1131.75264024445	163.761132423289	1488.79540592544	631.769704402719	147.273072285668	849.709590719022	941.053453630177	178.242343699128	1161.31246455435	1133.94393836342	178.808522922549	1821.24664634801	1264.79320172331	145.988250197392	1542.70468740407	933.144694504649	167.787293329931	1780.2195538534	1216.76059474202	134.403646694816	2128.51649646731	790.356730128598	201.001327222897	1507.97676015773	1067.15176941438	139.004650252251	1675.23768678866
536.463201885107	141.988250197392	873.250390080706	809.213400019763	220.440770141163	1028.70301996598	586.005942971887	149	832.885220375723	1232.99100656708	158.123127125378	1517.92570156981	1200.86955701846	138.195235687953	2058.09732854314	1117.34865610219	146.915063851928	1579.74708284876	481.638994342801	134	706.502248746142	1128.25854171376	163.649348015681	1482.81884068744	630.880304476402	147.339433938232	848.208959443167	939.54848054888	178.209378078494	1158.58045618039	1133.2951056515	178.768607937331	1819.86067977214	1263.22644417991	145.976220778044	1539.72932585629	932.119916916971	167.726136403815	1777.74588484656	1215.22144301701	134.397526633943	2123.7430973009	789.646971335535	200.861089651946	1505.71273289849	1066.63591796148	139.001327222897	1672.72914981307
535.506899190764	141.976220778044	870.875292315288	808.196202257165	220.325545539466	1026.64335155479	585.206277972926	148.998672777103	830.972213830651	1231.02045886171	158.120986629336	1514.43531850998	1199.4186294763	138.148210852555	2053.98739902298	1114.69240831878	146.875545651725	1574.65595139568	481.171468883851	134	705.084751063129	1124.29025531816	163.518506407647	1475.79242448846	629.920846697357	147.395923456643	846.545530418126	937.801776610689	178.173844316329	1155.39223124747	1132.59832450776	178.721562471709	1818.34930833543	1261.39845573545	145.95927654881	1536.34362353868	930.986792295861	167.665412754981	1775.30092228054	1213.51491922815	134.395396437723	2119.02195828628	788.891775694426	200.726383539957	1503.58178236906	1066.08798327182	139	1670.47253362863
534.531423806407	141.95927654881	868.30688572655	807.2599577977	220.221140298956	1024.6069590016	584.441502327738	148.995349747749	828.980042729867	1229.08857673808	158.118476873128	1510.81160475336	1197.89243230132	138.103207600203	2049.71417442093	1111.94093895922	146.83178338758	1569.33957643966	480.708067192082	134	703.638928584423	1120.09735411031	163.379613215047	1468.14738112672	628.935138114643	147.43463562461	844.774805374545	935.890409772934	178.132168830931	1151.82525942576	1131.89465526591	178.670421040466	1816.72580792121	1259.41397919433	145.938843073884	1532.65068400466	929.819276939069	167.602473366057	1773.03470521602	1211.73570156878	134.390562813679	2114.56512038836	788.150123504036	200.602063581445	1501.71973133892	1065.53592730067	139	1668.53870322119
533.586953249811	141.938843073884	865.668960676375	806.451409875363	220.13163707441	1022.67438316074	583.759025896676	148.988250197392	827.031397836045	1227.31041045633	158.113111630505	1507.25583166064	1196.39582182849	138.064502673146	2045.58851533938	1109.26462200051	146.785971669255	1564.12270636678	480.282196159593	134	702.257908136005	1115.93267772248	163.244469088175	1460.37158665969	627.968736749649	147.450921573646	842.953918389207	933.913972645514	178.084137981923	1147.99680391194	1131.22339714344	178.619842610578	1814.99639534758	1257.39467758228	145.917596325812	1528.77464642382	928.679372104043	167.53554411248	1771.04441195852	1209.95944718824	134.377338395275	2110.49704848648	787.467194352779	200.493448542648	1500.21800747999	1064.99296700687	139	1666.9381692077
532.714142091172	141.917596325812	863.074612733493	805.798420262293	220.058450728946	1020.90115864979	583.189248423766	148.976220778044	825.223985841175	1225.75993867943	158.101867959453	1503.92045095386	1195.025131492	138.035529024564	2041.91153800682	1106.81061526605	146.740278794355	1559.31184984722	479.920332939978	134	701.0211085899	1112.02553114609	163.12470834005	1452.95471640788	627.0582091262	147.44680966751	841.138271425469	931.976887183244	178.03299655068	1144.06455747844	1130.60786076063	178.57564706915	1813.1736346159	1255.45222478994	145.897590565946	1524.85922891927	927.61402623106	167.464654179575	1769.37776977739	1208.2452754617	134.351166585386	2106.86753014051	786.871908450457	200.405756966235	1499.11742901628	1064.46084517797	139	1665.63728268689
531.940838753468	141.898917788843	860.621490578523	805.308904406305	220.000783048522	1019.32127820624	582.739625590368	148.95927654881	823.627384226578	1224.46436267867	158.082386518734	1500.90519153998	1193.85246055219	138.016400054859	2038.91629613675	1104.68518973647	146.694625543748	1555.14784885264	479.636567954742	133.998672777103	699.984648324025	1108.55319294309	163.028162275321	1446.30831449766	626.232170073414	147.42760520228	839.385376527562	930.176131713088	177.982076281282	1140.21854777044	1130.05991733098	178.541864770174	1811.28880475457	1253.68256380564	145.880125146052	1521.07201738679	926.660355279998	167.392667522876	1768.05596354574	1206.64466380461	134.313783319004	2103.69380607279	786.379366271277	200.342396027062	1498.4199220282	1063.94182457324	139	1664.5864571892
531.280602179	141.886102621199	858.384487884397	804.975578249035	219.956570351639	1017.94722770299	582.403453349975	148.938843073884	822.274724908212	1223.41669365751	158.054067675581	1498.25584994135	1192.92457645409	138.004650252251	2036.73532043873	1102.95212177574	146.64882099676	1551.77678156913	479.435194713075	133.995349747749	699.178301134636	1105.63563921491	162.959119980978	1440.71531335978	625.513609652815	147.400061807601	837.754956614342	928.586643872311	177.934990987783	1136.64910558198	1129.57905222352	178.519321729251	1809.39454421195	1252.14915756492	145.863813004571	1517.57816680499	925.84098098658	167.326872762363	1767.08280686375	1205.19598433563	134.269749256314	2100.98278021086	785.987670637836	200.302994286173	1498.09050958076	1063.43679019106	139	1663.73648725005
530.739947826126	141.881540282327	856.414144167338	804.78463746924	219.923573800959	1016.77494258459	582.165358511332	148.917596325812	821.17246816234	1222.59151540777	158.018678536968	1495.97546667039	1192.25365086234	137.996676970646	2035.37823244052	1101.6265016156	146.601687617761	1549.22908274661	479.310330358992	133.988250197392	698.60600559115	1103.32570174582	162.915859318303	1436.29553998561	624.92040360524	147.370302410723	836.304033812095	927.254158547498	177.8921545654	1133.51507600171	1129.16089362523	178.506489406152	1807.55165300059	1250.88518335967	145.845923344385	1514.51289139918	925.165319237233	167.273893169493	1766.44121307629	1203.92524970656	134.225007502684	2098.73071403863	785.680448301878	200.280280429253	1498.05978683286	1062.94826101006	139	1663.04020031375
530.317456378003	141.8861026212	854.737796336273	804.716964721861	219.898917788843	1015.78784118162	582.009685315902	148.898917788843	820.30655371858	1221.95954548035	157.981321463032	1494.04041516682	1191.82194411884	137.988250197392	2034.74976245573	1100.68353107586	146.551611551554	1547.43849966633	479.249757161971	133.976220778044	698.251962460805	1101.62307210518	162.891538621746	1433.02211873333	624.469073587312	147.343469258184	835.091265359843	926.192097504914	177.85311080812	1130.92633691699	1128.80019700226	178.499488068995	1805.84002348265	1249.89468466746	145.822665313089	1511.97564370926	924.633639510342	167.239289779176	1766.09638677849	1202.84626907101	134.186816525378	2096.92025074144	785.43273480836	200.262020317978	1498.23402119572	1062.48140772743	139	1662.45099167674
530.009247045612	141.897590565946	853.364689583547	804.754238143417	219.880125146052	1014.9633413675	581.925957070699	148.8861026212	819.657203850906	1221.49484375976	157.945932324419	1492.41952103417	1191.59032945336	137.976220778044	2034.68989304488	1100.07195077222	146.498586882471	1546.27339273832	479.237633829414	133.95927654881	698.087310905265	1100.48560886804	162.878200097519	1430.76667894448	624.17228598288	147.320966045139	834.161308526816	925.392758493171	177.814500397696	1128.92682538806	1128.49824923332	178.492428073358	1804.33234609355	1249.16611015835	145.791936726549	1510.00764554371	924.237818821696	167.225790551206	1765.99413558652	1201.95695866132	134.158656149942	2095.50623263656	785.214762535179	200.234207813896	1498.50643807516	1062.04040714218	139	1661.9162923004
529.812735348748	141.912946073561	852.294510508643	804.881598120369	219.863813004571	1014.27756848356	581.911357517246	148.881540282327	819.208105048591	1221.1867112432	157.917613481266	1491.08903568144	1191.5129243487	137.95927654881	2035.0317848518	1099.73155427998	146.444215142427	1545.5883421579	479.258617040937	133.938843073884	698.078521942918	1099.85397780678	162.867263568056	1429.36861992002	624.035323667074	147.302557628027	833.539744067086	924.834969513039	177.774585412478	1127.51134199566	1128.26179511952	178.481914451782	1803.09809485987	1248.67726652219	145.754559022389	1508.60933723879	923.970574503784	167.230969860204	1766.07576242478	1201.24594137082	134.141261487972	2094.41762901999	785.00307946018	200.184629874391	1498.77828637458	1061.63076150221	139	1661.38391135147
529.726743332523	141.927093271276	851.518559290009	805.085360691611	219.845923344385	1013.70978535484	581.968018311547	148.886102621199	818.948867589799	1221.03357875012	157.898132040547	1490.03813176992	1191.54432633571	137.938843073884	2035.64490732968	1099.60495319416	146.393208997477	1545.26930948276	479.296785300567	133.916269102915	698.194615403046	1099.66386316228	162.853093652666	1428.69622894415	624.054833694154	147.285893015533	833.229265951711	924.502346843932	177.733312274317	1126.6516220965	1128.10827692687	178.46507638204	1802.20243504661	1248.4170650109	145.713306514452	1507.76378246779	923.832986571453	167.250434145469	1766.29930308858	1200.70443540888	134.131624656556	2093.58284643844	784.789258710858	200.108024720108	1498.98442578772	1061.26467203427	139	1660.8193269643
529.753563463784	141.935497326854	851.029604300103	805.354693507687	219.822665313089	1013.24750837595	582.101026146127	148.898917788843	818.877584520514	1221.0445744271	157.886888369495	1489.27487463329	1191.6563988159	137.917596325812	2036.46957619304	1099.65791103108	146.352764955512	1545.27049967735	479.341521491975	133.894267536593	698.412484745074	1099.86818770667	162.834415115697	1428.69083818353	624.214027448825	147.268780066652	833.210592043254	924.387845129272	177.694200262423	1126.3210682769	1128.05818626085	178.442641538435	1801.70526156228	1248.38066452117	145.674187261648	1507.45816714839	923.836723469368	167.279841071333	1766.65457075174	1200.33490715592	134.124437192821	2092.95043442976	784.585613626302	200.008147759939	1499.10712571053	1060.96366935656	139	1660.2165459489
529.897126567398	141.935497326854	850.822872667906	805.680018488733	219.791936726549	1012.89158363236	582.309862819593	148.917596325812	818.996805443048	1221.23086786318	157.881523126872	1488.827551624	1191.83804874371	137.898917788843	2037.52112159261	1099.88322084031	146.329672297191	1545.62200114073	479.386026271343	133.874352818591	698.721630229682	1100.43811793262	162.813195892475	1429.37330690287	624.490151547044	147.250620286609	833.451995582881	924.500607102972	177.661893284665	1126.51750364346	1128.13568765654	178.41796010887	1801.6694620317	1248.57872541378	145.643061087153	1507.70459547103	924.005537186536	167.315914270272	1767.17858865106	1200.15599377637	134.115224601697	2092.52557012617	784.423779959988	199.895835627988	1499.18746066868	1060.7604381429	139	1659.62230534358
530.159405664376	141.927093271276	850.887869322527	806.050016448743	219.754559022389	1012.6482577936	582.588392678647	148.938843073884	819.299532106386	1221.59904331609	157.879013370664	1488.720462919	1192.09577153456	137.8861026212	2038.85777759677	1100.29868256402	146.328886479322	1546.40540462326	479.430347561452	133.856433837474	699.118855936473	1101.3577662253	162.794486355888	1430.80570496626	624.856035552461	147.23194174964	833.919897122909	924.856981192173	177.641454247517	1127.25645258913	1128.36246311495	178.395919794307	1802.15433696056	1249.02472809927	145.625316050519	1508.53307286223	924.366418265685	167.357039244078	1767.93373039924	1200.20157709638	134.101082211157	2092.36147092412	784.349453781336	199.785444650335	1499.30451579426	1060.6949454632	139	1659.1188667714
530.537310885668	141.912946073561	851.205168741616	806.45235448248	219.714633737349	1012.52365652681	582.920344109262	148.95927654881	819.763213504871	1222.14570405892	157.876872874622	1488.96345718467	1192.43941310594	137.881540282327	2040.53353493575	1100.92823124747	146.349324761422	1547.70504333967	479.478951573695	133.839401694862	699.605216835855	1102.60150788162	162.782365964249	1433.02453173005	625.284856818924	147.214712391071	834.586846386995	925.46211734449	177.637345469867	1128.54919582109	1128.74736690971	178.380818466034	1803.2029094229	1249.71878731933	145.624510018283	1509.96565763871	924.939619747857	167.403298961404	1768.99358727714	1200.50561407871	134.082403674188	2092.55322365459	784.406606860693	199.690246438726	1499.55696791722	1060.80411343189	139	1658.81718457595
531.020743508662	141.897590565946	851.742184483279	806.873552348577	219.677510291001	1012.51941643826	583.28703409729	148.976220778044	820.348220581551	1222.85533793067	157.875138566887	1489.54319345606	1192.86936115727	137.8861026212	2042.54991878581	1101.78093530456	146.385497214595	1549.55396391963	479.537723152788	133.820033584971	700.177444528707	1104.11280268689	162.779042934895	1435.97127366574	625.753557304238	147.202179273903	835.424523033401	926.299276312193	177.648833414614	1130.36076248222	1129.28505603811	178.374439468271	1804.80950913362	1250.63664607453	145.641459809738	1511.97130655383	925.720275818467	167.452706084912	1770.39591332312	1201.07847731767	134.061156926116	2093.17972175559	784.622262644889	199.617687443414	1500.02248857163	1061.10453928576	139	1658.81096393822
531.586790646184	141.886102621199	852.456021721291	807.297103647406	219.650160637511	1012.6307482176	583.664405730015	148.988250197392	821.006649548179	1223.69207528216	157.873025595694	1490.42240729337	1193.37114798402	137.898917788843	2044.81183105866	1102.83969357078	146.427001814423	1551.88669830837	479.612910401449	133.795013374808	700.816597339224	1105.80186907542	162.78273655328	1439.45010371459	626.240073479014	147.196039416324	836.401118124433	927.312768178301	177.672860038751	1132.58526183725	1129.94432000939	178.375743973492	1806.90138931367	1251.71759535443	145.67295351435	1514.44102425345	926.676424392375	167.502471241655	1772.13630537822	1201.89687636698	134.042050674087	2094.28531642232	785.000757173906	199.56908418622	1500.75498812437	1061.58798322967	139	1659.16434802271
532.20506729766	141.881540282327	853.294081585952	807.70891546513	219.637345469867	1012.84437312938	584.03271984123	148.995349747749	821.691646663989	1224.61666145718	157.872239777826	1491.54633021498	1193.91172147513	137.917596325812	2047.13932250839	1104.05543672031	146.463871131053	1554.53960566355	479.705158754513	133.761508386973	701.488551418488	1107.54972719343	162.789416670519	1443.1453111981	626.724197155908	147.196104612026	837.467444894726	928.416062851225	177.701556711844	1135.03166213262	1130.6760552041	178.380917720268	1809.3229046436	1252.87658553547	145.713306514452	1517.17423227813	927.745730075203	167.546152833332	1774.1554822351	1202.89395043832	134.029756697104	2095.85234492064	785.519552694275	199.539579432432	1501.77116090877	1062.21371123247	139	1659.88868590375
532.83902023499	141.8861026212	854.207049641089	808.099132659889	219.641454247517	1013.14729464414	584.376474426949	148.998672777103	822.372083540226	1225.5866762039	157.873025595694	1492.86193251864	1194.44950084277	137.938843073884	2049.30048394481	1105.3584603478	146.488843186143	1557.27970517147	479.811975534492	133.719719570747	702.144169733168	1109.2365332557	162.793691664507	1446.68066489435	627.18613101794	147.201213163101	838.558452218835	929.507488819215	177.724802325286	1137.45431709604	1131.42244910326	178.384699048446	1811.85977007184	1254.02403002018	145.755792769687	1519.916457423	928.845715274827	167.577019187792	1776.35604531481	1203.97395485083	134.028149857467	2097.80782302354	786.136481304162	199.522970518757	1503.06309798159	1062.9201638847	139	1660.95126536306
533.451914280873	141.898917788843	855.149106156641	808.462274809385	219.661893284665	1013.52690025024	584.684824307238	149	823.033531783704	1226.56638539219	157.875138566887	1494.31966656734	1194.94365907863	137.95927654881	2051.06540280892	1106.67622524142	146.500592988751	1559.86050379283	479.925872913292	133.673477008876	702.727439423253	1110.7677084689	162.791936726549	1449.71203051094	627.603710938898	147.208592330198	839.59089050567	930.490154891505	177.733485997604	1139.59511674558	1132.12082886171	178.383646635115	1814.26515517161	1255.08266428346	145.793538003965	1522.40536186126	929.892005639732	167.588598174402	1778.63070495193	1205.03034197587	134.040179276815	2100.05009780595	786.802895726696	199.512547939046	1504.61918863055	1063.63485023226	139	1662.29059790668
534.011800305416	141.917596325812	856.088131944788	808.803424671296	219.694200262422	1013.9764612679	584.953894999414	149	823.678933925632	1227.5353015254	157.876872874622	1495.88845260747	1195.3742625859	137.976220778044	2052.28004249158	1107.95719034201	146.502723184971	1562.09308937228	480.03992528504	133.62971000713	703.192128129178	1112.10049309486	162.783532670971	1452.02027571174	627.956893812921	147.215777756107	840.482475567467	931.297882061692	177.720001887261	1141.2454500533	1132.72119528307	178.37496092497	1816.31795758498	1256.01298918667	145.822144122428	1524.43709709807	930.812268163265	167.576441286957	1780.88091621933	1205.97267655049	134.065829896043	2102.47116394403	787.474009879643	199.505377630765	1506.41970064243	1064.29235445661	139	1663.83114832065
534.49671033708	141.938843073884	857.000210357036	809.13088570389	219.733312274317	1014.49207787738	585.180893490751	149	824.316979825582	1228.48183375227	157.877686147768	1497.53986369585	1195.74250290734	137.988250197392	2052.89496521019	1109.17603225275	146.503254290177	1563.88270099798	480.148628237215	133.596884272447	703.508715790184	1113.24363255245	162.771140411214	1453.55303021496	628.225794561612	147.220340094979	841.160542976556	931.902676995259	177.681289719295	1142.28763954878	1133.18539832268	178.358016695736	1817.85762342413	1256.81007279568	145.840467059898	1525.90643462189	931.557839595601	167.539484056948	1783.02261834303	1206.7456250437	134.101880377306	2104.96596270702	788.115808159221	199.50192706728	1508.42598437418	1064.84497419569	139	1665.48923702518
534.893944113543	141.95927654881	857.868570282236	809.457058523935	219.773258189581	1015.06965616961	585.364732671729	149	824.950192156472	1229.39891071469	157.876872874622	1499.24429738628	1196.06696288694	137.995349747749	2052.97067758059	1110.33194057041	146.509829590961	1565.23827325479	480.248757151332	133.582829795284	703.670593211937	1114.24116002325	162.75991396519	1454.41911427677	628.396921941605	147.220080274945	841.582479577172	932.318266133367	177.619343916397	1142.72188319028	1133.49454079627	178.33291228871	1818.82079571736	1257.50274298429	145.850461924548	1526.82797263162	932.10955513989	167.48166731564	1784.98186577064	1207.33458721134	134.143560600305	2107.42926634692	788.70374317046	199.50517933871	1510.5601282446	1065.26816824518	139	1667.17024606522
535.20161511045	141.976220778044	858.673569061657	809.790092864759	219.808522922548	1015.69211476068	585.503581502435	149	825.562574558203	1230.27708736114	157.875138566887	1500.94642967659	1196.37265999212	137.998672777103	2052.64316616142	1111.43062761626	146.530285783563	1566.24103018939	480.33888772603	133.59258859861	703.692711943896	1115.1420907217	162.755893100918	1454.82899109519	628.461560872504	147.213914224921	841.741830476981	932.584664506112	177.540437216045	1142.65271167338	1133.64248203668	178.300968151361	1819.23771993523	1258.1272991177	145.855112176798	1527.31076162746	932.46998962021	167.411554918661	1786.68472071521	1207.75809059714	134.183485885345	2109.7456579462	789.220216251176	199.518535980955	1512.69046203993	1065.55733202174	139	1668.76444790911
535.423462741207	141.988250197392	859.388420640403	810.129883760129	219.835383530364	1016.32756094489	585.592022131292	149	826.11781116674	1231.09320025432	157.874352818591	1502.56178668794	1196.67148134658	138	2052.06923566498	1112.46593529644	146.566429740426	1566.99232079891	480.41706538826	133.62583724118	703.603266651026	1115.96986873694	162.762992651276	1455.00762618509	628.420490134408	147.20095130524	841.667074438679	932.751651700441	177.453585308807	1142.25390607715	1133.63345211849	178.263435454253	1819.21218657791	1258.71359415034	145.858194337653	1527.51943047698	932.658842851647	167.33836070711	1788.05042834211	1208.05582925956	134.214979589957	2111.78298280676	789.649565509551	199.54265051847	1514.63466045991	1065.7231773141	139	1670.1447220081
535.5680674729	141.995349747749	859.975060811227	810.466803276461	219.851975288585	1016.92094797386	585.627568449253	149	826.559478172663	1231.81487258836	157.876890030076	1503.97171041362	1196.95701997307	138	2051.36665805213	1113.40820591288	146.616353364885	1567.55970501142	480.480676419657	133.678837513898	703.430013898004	1116.70619461334	162.783693187146	1455.11387540714	628.284043758288	147.180943866686	841.415795705152	932.863011216441	177.367579058098	1141.72074194399	1133.48217448433	178.221667317876	1818.89288084627	1259.27017278192	145.860996176347	1527.62114505333	932.703004621774	167.272269174402	1788.99257512768	1208.27103219847	134.232357096474	2113.39278552232	789.975229689689	199.575629913695	1516.17719378395	1065.78549643054	139	1671.17352788783
535.647049959545	141.998672777103	860.390435600226	810.783254110428	219.857411289132	1017.40324542684	585.608980954149	149	826.823877032259	1232.40482212965	157.884775398303	1505.04066028556	1197.19452992087	138	2050.58649561978	1114.19570355508	146.673910286159	1567.94509293127	480.522442518207	133.743607385931	703.195829762613	1117.28450005125	162.816514114655	1455.19720682598	628.068260232445	147.15462082999	841.054422876994	932.944089449252	177.290280806499	1141.22134006396	1133.2070618157	178.178400051946	1818.42172015865	1259.77752957585	145.863813004571	1527.73587412111	932.629222746466	167.219906551658	1789.43657788294	1208.43329317194	134.232357096474	2114.43400980973	790.180706649454	199.612753360043	1517.1133585102	1065.76227495715	139	1671.72441350644
535.671973738027	142	860.59402007275	811.057474614959	219.851766429769	1017.70081790119	585.540818786793	149	826.855338399952	1232.82752509854	157.898917788843	1505.64002168066	1197.32933515271	138	2049.70736714335	1114.74747569504	146.729452577536	1568.08943718652	480.531396310382	133.811065696255	702.914526295971	1117.60880297257	162.856439399695	1455.19588015009	627.795426890497	147.12618865601	840.645993360657	932.996345009717	177.228852081838	1140.86721403754	1132.8292533798	178.137938458618	1817.91303313696	1260.19434295987	145.86505231409	1527.91838280919	932.465531062396	167.183312162058	1789.3468741553	1208.56287551447	134.214979589957	2114.80917209071	790.257916973114	199.648376126245	1517.30090519569	1065.67475917631	139	1671.71138398345
535.656430410584	142	860.566741354945	811.273171046381	219.836962696578	1017.76077545425	585.436476797258	149	826.627232604791	1233.06620954423	157.917596325812	1505.69110169211	1197.30589061677	138	2048.66046239322	1114.98835620665	146.774209448794	1567.89914842182	480.496940250901	133.873013177841	702.592653300791	1117.59145102805	162.898119622694	1454.97759597772	627.486205895803	147.098803729047	840.236990617218	933.003511034044	177.186228106574	1140.69833288566	1132.36863413577	178.103453981298	1817.42484245368	1260.4674947191	145.862061541382	1528.15035767209	932.240869734648	167.16128787806	1788.75080838579	1208.66901513414	134.183485885345	2114.50221715281	790.210733125517	199.679104712785	1516.70264803675	1065.54448446572	139	1671.11747608087
535.618041262268	142	860.32601967461	811.427607842631	219.815715948506	1017.57144428602	585.3183873821	149	826.158982403178	1233.13266765859	157.938843073884	1505.19657753986	1197.08872250957	138	2047.38211173617	1114.87717761354	146.80161500598	1567.30069884762	480.412336718614	133.923747524246	702.239563314379	1117.1907475401	162.935497326854	1454.41328498835	627.160731335457	147.077556980975	839.855551242885	932.939019751379	177.163820351944	1140.69557075156	1131.841022944	178.078884203872	1816.97054097501	1260.54777715382	145.853093652666	1528.36898818424	931.985506164918	167.149538075452	1787.74915994569	1208.75998406027	134.143560600305	2113.59728213863	790.062114487183	199.702790459141	1515.40561245911	1065.39820216534	139	1670.01006693647
535.575985247156	142	859.926225345635	811.536843799896	219.792734892699	1017.17164995705	585.216988795897	149	825.519501617282	1233.07514320904	157.95927654881	1504.2529645966	1196.67790915242	138	2045.86049730562	1114.42936937155	146.807739874027	1566.2884172651	480.278224721132	133.959820723185	701.875791180599	1116.43847099781	162.964470975436	1453.44479535415	626.838213146557	147.065829896043	839.519312193745	932.782757548813	177.159983372839	1140.80490442187	1131.26425238974	178.065829896043	1816.53554793266	1260.40996671626	145.835635473681	1528.5022023792	931.734742699791	167.143132885243	1786.51135798669	1208.85072558388	134.101880377306	2112.282360039	789.851784626256	199.720158928667	1513.61584964463	1065.26589535897	139	1668.54017507988
535.554232110387	142	859.460416811597	811.634863691163	219.773270607435	1016.65179646511	585.166544548257	149	824.819850543492	1232.97242828058	157.974893555147	1503.04373825306	1196.12109223505	138	2044.16679691997	1113.72832172601	146.794660079175	1564.9518523162	480.10880776863	133.982272722244	701.536690597763	1115.45211008957	162.983599945141	1452.1300058248	626.53731271596	147.064502673146	839.240213353382	932.534213731399	177.170235136553	1140.96338021728	1130.65915177066	178.064502673146	1816.09912402088	1260.0642025504	145.811065696255	1528.49898722962	931.523400891457	167.137676600757	1785.24354148096	1208.96380884353	134.064502673146	2110.80784755048	789.631859407263	199.733515570912	1511.61454817344	1065.17877522637	139	1666.9098501045
535.575053261429	141.998672777103	859.047364989168	811.768655727927	219.762992651276	1016.14220786732	585.197660810912	148.998672777103	824.197024616142	1232.9182356566	157.983599945141	1501.81570314227	1195.5043360604	137.998672777103	2042.46828234911	1112.90937888495	146.765167743241	1563.47938220809	479.926919547989	133.992695301956	701.272887696344	1114.41364993724	162.994022524852	1450.65863114584	626.28092899535	147.072906728724	839.037739074661	932.223153098612	177.189458553319	1141.13620993703	1130.05992886479	178.074233951621	1815.67032774395	1259.56588915977	145.780985090091	1528.36698206785	931.386091972442	167.131536743178	1784.15571575541	1209.12898353799	134.036856247461	2109.44238742249	789.458287421923	199.744841133228	1509.70628043861	1065.16608616655	139	1665.34135852606
535.65571434594	141.995349747749	858.8100691737	811.984180740828	219.76631568063	1015.78609722191	585.332112210238	148.995349747749	823.786708980881	1232.99982376187	157.983599945141	1500.82712574187	1194.93969577185	137.995349747749	2040.9937827137	1112.1409997702	146.725600491435	1562.12178104002	479.763617094139	133.994022524852	701.139266444072	1113.5379320138	163	1449.31979624534	626.095635344572	147.085726703542	838.938206783401	931.917160961515	177.210163896363	1141.33077567905	1129.51878896181	178.09170417869	1815.2920406418	1259.01525611109	145.748164162582	1528.17401423024	931.352723159428	167.124525106199	1783.41365055293	1209.37698799449	134.021050307109	2108.40378039325	789.381231702346	199.75666169376	1508.15155060707	1065.2490292829	139	1664.02006664796
535.806092783513	141.988250197392	858.856695527201	812.31972665754	219.78634763294	1015.71226499237	585.575586266519	148.988250197392	823.696726472099	1233.28084369354	157.974893555147	1500.30158999988	1194.53985470792	137.988250197392	2039.99348105678	1111.58472332086	146.681637186669	1561.14630020015	479.649737645788	133.988250197392	701.183915912635	1113.02406191829	163.005977475148	1448.44322774855	626.007855920423	147.0990864047	838.975798167232	931.70671983458	177.230711061256	1141.60990632851	1129.09860987116	178.115486459559	1815.04944781017	1258.53864310811	145.717618947835	1528.04862936008	931.449708556282	167.120136711809	1783.12570062272	1209.73794939837	134.019054500653	2107.8351186076	789.438762416011	199.773613523042	1507.13239360257	1065.44389756351	139	1663.07651161019
536.025832041834	141.976220778044	859.258613599283	812.79487417475	219.822491589803	1016.00826202617	585.918764093534	148.976220778044	823.987398886669	1233.78691339964	157.95927654881	1500.38758814584	1194.39374495723	137.976220778044	2039.68571157655	1111.36197851232	146.638927335854	1560.78298168644	479.609197749498	133.976220778044	701.438300105928	1113.01338925833	163.017727277756	1448.33251477572	626.041744112852	147.106797828443	839.18183830882	931.697795176621	177.250713762208	1142.08009179394	1128.87222503868	178.143654075904	1815.04789814791	1258.27246249025	145.693408951905	1528.15123696719	931.69546395319	167.1239101739	1783.31976800914	1210.23529946007	134.029756697104	2107.76983865481	789.64904724325	199.800715774352	1506.71899936508	1065.7586505231	139	1662.55682525815
536.303773623566	141.95927654881	860.03995350144	813.407185364051	219.874166677451	1016.70651419381	586.335196570254	148.95927654881	824.662377144956	1234.50354648742	157.938843073884	1501.13232162582	1194.55778346751	137.95927654881	2040.19427071365	1111.5408469376	146.603792326958	1561.16567440503	479.656830010247	133.95927654881	701.904308286128	1113.57265295099	163.041506499712	1449.18782193511	626.2118762184	147.106430298325	839.577101294934	931.984016494287	177.275714175666	1142.86467783058	1128.90303349779	178.176910446619	1815.38898640504	1258.33300514999	145.678837513898	1528.63892455201	932.104649397503	167.143386877018	1783.9705752414	1210.88842677088	134.053800476695	2108.16677781425	790.015656223157	199.845991195019	1506.89461403005	1066.20081020918	139	1662.44546487792
536.62179696548	141.938843073884	861.163009295659	814.135764813765	219.939626122406	1017.77105035225	586.787647010842	148.938843073884	825.661800126041	1235.38639711335	157.918923548709	1502.47145798141	1195.03655044788	137.938843073884	2041.52130914755	1112.11631307576	146.581624544297	1562.30639782233	479.792674475346	133.938843073884	702.553760880659	1114.67432410139	163.082229950902	1451.06083633552	626.520555723931	147.096953149567	840.160123368231	932.625007184957	177.313246755309	1144.06799016331	1129.23085580176	178.216560804629	1816.13730730143	1258.7913099381	145.674708452308	1529.62458583147	932.678683641747	167.184110328208	1785.0110320525	1211.70280617522	134.09091362322	2108.9374910692	790.523282600951	199.915330261556	1507.56874979586	1066.76895732539	139	1662.67932580403
