Light	Light	Light	Light	Light	Light	Light	Light	Light	Light	Light	Light	Light	Light	Light	Light	Light	Light	Light	Light	Light	Light	Light	Light	Light	Light	Light	Light	Light	Light	Light	Light	Light	Light	Light	Light	Light	Light	Light	Light	Light	Light	Light	Light	Light	Light	Light	Light
Optode1-730nm	Optode1-Ambient	Optode1-850nm	Optode2-730nm	Optode2-Ambient	Optode2-850nm	Optode3-730nm	Optode3-Ambient	Optode3-850nm	Optode4-730nm	Optode4-Ambient	Optode4-850nm	Optode5-730nm	Optode5-Ambient	Optode5-850nm	Optode6-730nm	Optode6-Ambient	Optode6-850nm	Optode7-730nm	Optode7-Ambient	Optode7-850nm	Optode8-730nm	Optode8-Ambient	Optode8-850nm	Optode9-730nm	Optode9-Ambient	Optode9-850nm	Optode10-730nm	Optode10-Ambient	Optode10-850nm	Optode11-730nm	Optode11-Ambient	Optode11-850nm	Optode12-730nm	Optode12-Ambient	Optode12-850nm	Optode13-730nm	Optode13-Ambient	Optode13-850nm	Optode14-730nm	Optode14-Ambient	Optode14-850nm	Optode15-730nm	Optode15-Ambient	Optode15-850nm	Optode16-730nm	Optode16-Ambient	Optode16-850nm
830.284870148815	160.005977475148	1419.34064875897	1374.06909114414	264.364523227631	2039.5919587772	896.668161450469	197.004650252251	1615.22458081917	1448.63891376598	161	2054.49520148503	1036.0546936827	186.351617018123	1957.04324020483	1196.64917919613	150	1860.85228913224	1001.40058353514	149.269749256314	1967.12097068251	1235.17434418505	202.005977475148	2005.85551146775	821.929315407154	163.082403674188	1373.88356554946	1794.80027034687	217.695940348791	2727.53190069917	1056.06304249787	218.757097274908	1884.8083033472	1383.23715863625	146.094153476797	1950.45168319586	916.780661540169	207.025106444853	2016.56439557552	1351.98155194261	134.922443019025	2595.25116537761	890.524766558447	150	2056.54153268122	1047.99526190045	154.719828163974	1984.86064909028
830.703487204234	160.005977475148	1419.2556959682	1374.97300156798	264.361461696999	2040.33199547199	897.090808313243	197.001327222897	1615.70077756112	1449.21085292446	161	2054.85216813106	1036.29350089931	186.340214948927	1957.49000138571	1196.79797142485	150	1861.01350870701	1001.99427081166	149.225007502684	1968.15826145031	1235.34165500204	202.001327222897	2006.3642048547	821.94460291163	163.101082211157	1372.78648255655	1795.09404897286	217.679104712785	2726.38976689062	1056.18818181016	218.761508386973	1883.50079985194	1383.37466765198	146.124861433113	1949.03412638031	916.980190681098	207.011749802608	2015.83699157516	1352.2886413014	134.88074007835	2594.22904636283	890.889951341601	150	2056.07225546473	1048.3046206892	154.669607767321	1984.24555740498
831.107328558493	160.011749802608	1419.15099741811	1375.80209888449	264.349043244798	2040.98816765891	897.484638772288	197	1616.11192028334	1449.46420790284	160.998672777103	2054.63516844158	1036.49461176263	186.322837442411	1957.62922192409	1196.80058953714	149.998672777103	1860.66658378962	1002.49363704047	149.186816525378	1968.81294374679	1235.44115216371	202	2006.47456449359	822.077601804859	163.113897378801	1371.70037856351	1795.49654593767	217.655226236595	2725.05256395448	1056.38356790203	218.757635670648	1882.15688840166	1383.50465820209	146.15462082999	1947.31744247735	917.17046367013	207.004650252251	2015.02810023975	1352.53070240113	134.82843764055	2592.91318647394	891.21037449949	150	2055.47913591921	1048.67510232913	154.620655883724	1983.71761476133
831.478078143597	160.023779221956	1419.02331496773	1376.54202324288	264.330392232679	2041.54958718463	897.836946794686	197.001327222897	1616.4231935685	1449.40901499659	160.995349747749	2053.88893601832	1036.63995759509	186.301418584098	1957.3863263056	1196.6572951408	149.995349747749	1859.7989610348	1002.887848927	149.158656149943	1968.99609221315	1235.4685296254	202	2006.14185721742	822.32165857624	163.118459717673	1370.65501874739	1796.00358920303	217.629504859443	2723.56997526578	1056.64229306179	218.748052490494	1880.81190073163	1383.63263593042	146.179616643789	1945.39405629594	917.322495316062	207.001327222897	2014.18829600777	1352.6595848653	134.767822189035	2591.39804484104	891.462453873697	150	2054.84271087111	1049.06574361256	154.578708599781	1983.32659914365
831.80904952173	160.04072345119	1418.88992331411	1377.19409255261	264.310472707504	2042.02693093496	898.141016379487	197.004650252251	1616.62179312021	1449.09925660196	160.988250197392	2052.73510840578	1036.72035373578	186.280171836025	1956.762886511	1196.39308345296	149.988250197392	1858.50091060253	1003.17384847628	149.141261487972	1968.69408060823	1235.43087998889	202	2005.41322238641	822.667107966406	163.113897378801	1369.68962683401	1796.61658209354	217.606782740527	2722.03347298123	1056.95429704647	218.736992260808	1879.51228285773	1383.78203097064	146.196301052989	1943.38931793699	917.417870946923	207	2013.37371322931	1352.65389875568	134.702450657458	2589.8124997181	891.63610280831	150	2054.25728154633	1049.44262048343	154.548627993617	1983.12194210429
832.097859354291	160.061156926116	1418.76747605104	1377.76187147352	264.294661959978	2042.42492941217	898.392195494694	197.011749802608	1616.70657388598	1448.61255954485	160.976220778044	2051.32988107502	1036.73520734704	186.261151459547	1955.84294098151	1196.04796544108	149.976220778044	1856.9512695424	1003.36256351358	149.131624656556	1967.99127299673	1235.34719632863	202	2004.42206882955	823.104318241895	163.101082211157	1368.85886999579	1797.33965677086	217.589787025955	2720.57613946112	1057.30991104387	218.727463626711	1878.32523205076	1383.99054023598	146.202164422313	1941.45502842614	917.452684911542	207	2012.63241482089	1352.51591066606	134.638114062708	2588.26616848809	891.737148191588	150	2053.80344937216	1049.78037954789	154.534511795521	1983.11713455255
832.340422227103	160.082403674188	1418.67121657495	1378.24358288011	264.287743595014	2042.74435495203	898.586310936776	197.023779221956	1616.69652597987	1448.02363604157	160.95927654881	2049.83908959361	1036.69949572873	186.246773762729	1954.7976462179	1195.67216628508	149.95927654881	1855.39886045556	1003.49095818661	149.125764415718	1967.09466474246	1235.24538795277	202.001327222897	2003.37690695831	823.620715153118	163.083730897085	1368.22753396862	1798.17318517062	217.578558414008	2719.35277480878	1057.7015326081	218.720364076354	1877.34008187187	1384.30323644977	146.196301052989	1939.7577836834	917.439387218547	207.001327222897	2012.00451266422	1352.26927992791	134.58205782158	2586.8306310726	891.786360840052	150	2053.53805095642	1050.05881991157	154.538783314741	1983.27808851566
832.531765787303	160.101082211157	1418.61448257665	1378.63014189395	264.29334233713	2042.97962766407	898.727453759086	197.04072345119	1616.64162665416	1447.39572579889	160.938843073884	2048.40938282393	1036.6488219296	186.237807552701	1953.85886403518	1195.3217143291	149.938843073884	1854.12624977384	1003.63287915721	149.121202076845	1966.32069803139	1235.16504143525	202.005977475148	2002.52889958716	824.203518074869	163.065807178367	1367.86802785515	1799.12146862832	217.572306884342	2718.54362441191	1058.13383312601	218.714540261749	1876.67212275402	1384.77791541527	146.179616643789	1938.48705376117	917.408609704084	207.004650252251	2011.52330381897	1351.95612877459	134.541678629033	2585.53380199889	891.816556879911	150	2053.49109907233	1050.26382196473	154.561598154209	1983.52632718898
832.666757028628	160.1138973788	1418.62037440105	1378.90777366355	264.313609595718	2043.13630749432	898.830619104795	197.061156926116	1616.63420858588	1446.7728312144	160.917596325812	2047.16789819795	1036.63876886314	186.236291754928	1953.29398603671	1195.05617861412	149.917596325812	1853.41209033204	1003.90030036767	149.118809488912	1966.06481416078	1235.15586780021	202.017727277756	2002.13995619752	824.840574201019	163.053800476695	1367.85430220983	1800.19348360352	217.569745914147	2718.34093173641	1058.62374222034	218.708656262201	1876.45454316623	1385.47165354974	146.15462082999	1937.8531594478	917.405078705343	207.011749802608	2011.23507624443	1351.6391938537	134.523000092065	2584.40695445402	891.871365075971	150	2053.68629168298	1050.3934645784	154.600736358548	1983.78004752354
832.74402864934	160.118459717673	1418.73511467612	1379.06297863291	264.350227744027	2043.25298208595	898.921503525449	197.083730897085	1616.81142834195	1446.17221672998	160.898917788843	2046.22244761263	1036.73671216823	186.243785027848	1953.33502209789	1194.933278968	149.898917788843	1853.4638288802	1004.42376942549	149.1239101739	1966.70458740213	1235.27183407824	202.040179276815	2002.41593697681	825.521349704524	163.052208696163	1368.24298528482	1801.39940214343	217.571073137044	2718.91281347635	1059.1953719984	218.701128996783	1876.80614938569	1386.4261476894	146.124861433113	1938.04879264512	917.481231393013	207.025106444853	2011.19482357646	1351.40013671944	134.529317368896	2583.5073919431	891.996307906392	150	2054.14409289239	1050.46488441567	154.650929230352	1983.9906203044
832.770850209619	160.1138973788	1419.02350379392	1379.09375838915	264.40217207902	2043.40333437943	899.036484959295	197.107059686304	1617.33243439623	1445.59803962292	160.8861026212	2045.6521702334	1037.00914742607	186.263173817588	1954.1396465481	1195.00240342558	149.886102621199	1854.38265678862	1005.32202886066	149.143386877018	1968.51134779265	1235.56283167978	202.076252475754	2003.47403891641	826.23733705722	163.064223056406	1369.05729700534	1802.74291850683	217.575629913695	2720.35610198712	1059.86913779234	218.690854515393	1877.79292922085	1387.64879218957	146.094153476796	1939.19446074507	917.680521167221	207.045373703441	2011.44438811845	1351.31944346971	134.560377796225	2582.91500141109	892.226661582699	150	2054.86778854152	1050.5112270388	154.707012996331	1984.16000585533
832.767533769859	160.101082211157	1419.5542210701	1379.01824751127	264.468678424709	2043.68518416006	899.215754343245	197.131624656556	1618.33448141796	1445.04569900796	160.881540282327	2045.48998401966	1037.49849751615	186.296680484111	1955.73179554726	1195.29225776825	149.88021305943	1856.13076231912	1006.65582636563	149.182783105311	1971.54046042152	1236.06197068035	202.125659599262	2005.30079838799	826.982452244966	163.089586400323	1370.27198946363	1804.2173692409	217.584330741468	2722.65862537848	1060.64785318466	218.679794285707	1879.39609131122	1389.10208963037	146.065807178367	1941.2851099811	918.024561816851	207.072906728724	2011.99667468848	1351.46561097697	134.611005277717	2582.72776771536	892.576410608706	150	2055.83790869674	1050.58078944679	154.761932627265	1984.35603614071
832.761398229493	160.083730897085	1420.37658607326	1378.87177033854	264.545625814411	2044.19514504243	899.487791601964	197.159966217385	1619.88338871	1444.50182807908	160.8861026212	2045.70314937378	1038.20738700164	186.344674509171	1957.97874969461	1195.79820187035	149.880125146052	1858.52284500474	1008.39066237567	149.243592298015	1975.56907109661	1236.77035695525	202.184284051494	2007.73749468969	827.748722792637	163.124454348275	1371.80718451793	1805.78854692543	217.595838970155	2725.67570931923	1061.50396301381	218.670956952846	1881.49013609113	1390.69289453011	146.042050674087	1944.15671977354	918.501154418752	207.107510119041	2012.81239562914	1351.87543060901	134.673839528235	2583.0290857503	893.031029169134	150	2057.00257016961	1050.72927625111	154.810972220655	1984.69496303676
832.783025861886	160.065807178367	1421.49164031652	1378.70137350231	264.626159112413	2044.9938435594	899.859883773955	197.194800106805	1621.93298869505	1443.94805674903	160.898917788843	2046.17270209996	1039.0891475754	186.404626184301	1960.60209880303	1196.47383324516	149.882517733985	1861.2459570738	1010.38424924227	149.320895287215	1980.10443105313	1237.64793629087	202.244642811461	2010.49585075602	828.525254005406	163.162239137273	1373.5349153666	1807.39421062038	217.607326914902	2729.12922142182	1062.3751583561	218.667511951582	1883.85216611192	1392.28082534641	146.023779221956	1947.48190928307	919.062827331559	207.146455914597	2013.79042284473	1352.54089344475	134.737607193107	2583.84543213008	893.548883400728	150	2058.26737390857	1051.00436147255	154.850311738774	1985.30282045162
832.856596792168	160.052473253798	1422.84597613596	1378.55542905534	264.700773663322	2046.08862079284	900.310690113349	197.239818835924	1624.31904087739	1443.3694172524	160.917596325812	2046.71881307173	1040.04883602239	186.469721072069	1963.22230765175	1197.22909080697	149.88074007835	1863.9095124043	1012.39792643312	149.403913893702	1984.46437354902	1238.61435405833	202.297383264146	2013.20345856302	829.296835200851	163.196301052989	1375.29874991542	1808.94522345767	217.614409309805	2732.64447020539	1063.1742692798	218.671983248591	1886.19707907132	1393.69688992761	146.011749802608	1950.81233467013	919.635409710993	207.186804107525	2014.79162583042	1353.40440519634	134.792480900924	2585.1334915725	894.068800685059	150	2059.52596510771	1051.43504819417	154.877417048997	1986.28741642262
832.99425618965	160.048885666809	1424.34056988321	1378.47474217176	264.760463839729	2047.43420863207	900.794280470395	197.296444422786	1626.78772869547	1442.75551688754	160.938843073884	2047.1453080156	1040.96423009943	186.532127607527	1965.44116482727	1197.94602444947	149.869690148487	1866.11931350996	1014.14587327982	149.478327130832	1987.93042908182	1239.56068563573	202.33343930763	2015.47744720427	830.045480331141	163.21954192883	1376.95134167411	1810.341378297	217.610643088624	2735.83209649954	1063.80874655585	218.684889458099	1888.24612223277	1394.7760580548	146.004650252251	1953.66947375506	920.141449103825	207.224642613818	2015.67787974712	1354.37655091867	134.829246314037	2586.78322278335	894.537165016254	150	2060.69879574157	1052.03019317875	154.892142147546	1987.71325977584
833.201390693276	160.058450728946	1425.8657099956	1378.50115740054	264.79941514788	2048.96104994822	901.257524023007	197.364250466523	1629.06711454296	1442.11695004311	160.95927654881	2047.30090100328	1041.71328859288	186.583276279679	1966.93092897982	1198.50701646901	149.845646368896	1867.55470753327	1015.36587585703	149.529740360619	1989.91764233301	1240.37722932277	202.346254475274	2017.00505055393	830.752639580919	163.227794757601	1378.38763971828	1811.48852171755	217.591252620196	2738.36643179168	1064.19905917357	218.702450657458	1889.78973501032	1395.38710322074	146.001327222897	1955.6460393494	920.518184624615	207.257030264044	2016.37697383945	1355.35042633182	134.844583703634	2588.67789928315	894.92111942518	150	2061.79819339897	1052.77395595264	154.896792399797	1989.61684663252
833.47981310394	160.083534456123	1427.35271511916	1378.68031768886	264.821792677887	2050.63201524039	901.663092257398	197.440770141163	1630.9589634975	1441.49283291872	160.976220778044	2047.15322624954	1042.20874712056	186.618619429141	1967.5331664095	1198.82814141289	149.808880955783	1868.06193226342	1015.88792581475	149.548418897587	1990.14703881799	1240.98485169651	202.33343930763	2017.6391943127	831.412944966851	163.21954192883	1379.57890791202	1812.33997197391	217.553445113522	2740.0787199508	1064.31445016318	218.719719570747	1890.75561896484	1395.47956855407	146	1956.51004563349	920.747392039913	207.282113991221	2016.92881519077	1356.24397427748	134.840016627161	2590.74552064923	895.239185091209	150	2062.96986827988	1053.64588552016	154.893817103856	1992.02412433658
833.839562928434	160.125237396797	1428.81123954764	1379.07267927649	264.840747924306	2052.47831842572	902.008546647914	197.521852154676	1632.40897406003	1440.95861683564	160.988250197392	2046.82482918088	1042.42071373179	186.637054038698	1967.31136766644	1198.88433003219	149.764040860857	1867.70620481753	1015.6840682441	149.529740360619	1988.72934115012	1241.35932654379	202.298710487042	2017.44624563546	832.036876818261	163.196301052989	1380.59166450245	1812.91035058948	217.500704660838	2741.02073753193	1064.18086405183	218.733861961288	1891.2384654197	1395.10085287518	146	1956.28978247687	920.864034926339	207.300994343805	2017.51079169066	1357.02438918873	134.821360807868	2593.02077513754	895.565907780867	150	2064.5097306431	1054.62907433766	154.887167986235	1994.97788547358
834.299978334473	160.183312162058	1430.34565824174	1379.74717298398	264.879093639152	2054.62241036747	902.330218036672	197.602473366057	1633.53749141614	1440.61094607738	160.995349747749	2046.5835166747	1042.39191412613	186.642960755922	1966.5501185788	1198.72809934537	149.719213231676	1866.77027097711	1014.88368295719	149.476999907935	1986.15508900215	1241.54775591046	202.250620286609	2016.71166461876	832.65543263195	163.162239137273	1381.58058923839	1813.28732577992	217.44209736406	2741.47998983948	1063.8834806551	218.743156953193	1891.49141552997	1394.39982623409	146	1955.29320054425	920.95131206257	207.317643015785	2018.40708876941	1357.7207143747	134.797721471864	2595.66128000663	896.018497135945	150.001327222897	2066.81465338691	1055.71667147945	154.882779591846	1998.54241002061
834.886157351556	160.257284255818	1432.13040924435	1380.76352746291	264.963762588338	2057.25308125033	902.694549595471	197.677777489888	1634.61270268859	1440.5459425049	161	2046.78797707655	1042.22914987512	186.643732729626	1965.69808460056	1198.48062450778	149.683912006441	1865.69830479899	1013.74591155243	149.400590864349	1983.18479810085	1241.66250124962	202.20201132925	2015.88332751132	833.318059914434	163.124454348275	1382.75833811578	1813.62220584913	217.392702658406	2741.92516425174	1063.55487861961	218.752034159185	1891.87161033205	1393.60356238165	146.001327222897	1954.05612097395	921.129056338548	207.337932992049	2019.94045491509	1358.43426690583	134.779130848273	2598.92086215257	896.739314132857	150.004650252251	2070.29045703005	1056.92590406458	154.884863311681	2002.78846851209
835.624396408079	160.344250268879	1434.37671832256	1382.15808170027	265.116640848599	2060.58887840929	903.179053677012	197.744042967078	1635.98861628098	1440.84980790682	161.004650252251	2047.82740183271	1042.0767509363	186.648833414614	1965.26814069426	1198.30611027756	149.66656069237	1864.99877531454	1012.59594401585	149.315122959755	1980.67122581859	1241.85392109848	202.167166098974	2015.47789826084	834.082821821406	163.089586400323	1384.34501145312	1814.09408059584	217.369177428224	2742.89530042169	1063.34079848909	218.768076180809	1892.7469371062	1392.96647316202	146.004650252251	1953.2127131951	921.516263562951	207.368029490835	2022.38428378252	1359.29772471074	134.772205242399	2603.07438471843	897.849064942131	150.011749802608	2075.23551185717	1058.27646157568	154.897852423808	2007.75852221251
836.532893097634	160.440770141163	1437.26834574812	1383.92645471158	265.349795715313	2064.80906867741	903.847650897679	197.799310331425	1638.00322606425	1441.5787180399	161.011749802608	2050.03478686324	1042.08762841444	186.666472778992	1965.71842709654	1198.38082530904	149.672450254139	1865.13074595062	1011.75267946498	149.237540353814	1979.35826105256	1242.28063809969	202.158482426656	2015.96407026576	835.003390471642	163.064223056406	1386.52108205647	1814.87032430716	217.385577483083	2744.88025155075	1063.3723715285	218.800987187619	1894.4127612075	1392.71861383542	146.013077025505	1953.35120484561	922.205401081227	207.412594658731	2025.86626054946	1360.44619927932	134.78045807117	2608.30795951099	899.416469682337	150.023779221956	2081.72579358744	1059.78567988916	154.922697010799	2013.41422048908
837.616958283806	160.54185235232	1440.90994310241	1386.02171869918	265.659994147102	2069.99732610781	904.732797077336	197.844596121488	1640.88681739428	1442.75400340994	161.025106444853	2053.61760094504	1042.38675483101	186.702704649233	1967.35890661482	1198.85492338726	149.704031872129	1866.4202358556	1011.45725006316	149.183566153833	1979.72812136213	1243.0745732372	202.18489337673	2017.67118203935	836.116072033595	163.052208696163	1389.37728974619	1816.06926960461	217.44928199008	2748.18666792227	1063.73313339623	218.858556526746	1897.00569707041	1393.01858403043	146.029756697104	1954.85903546967	923.232024822072	207.47332867696	2030.30777779756	1361.97027486207	134.803698947011	2614.61657966204	901.428508778646	150.04072345119	2089.5465911458	1061.44882513719	154.958319777002	2019.59710819097
838.860235027418	160.641633533025	1445.28054182805	1388.35550612144	266.030816721114	2076.08909932345	905.824245808095	197.882517733985	1644.68747354749	1444.35327618978	161.045373703441	2058.58972219512	1043.04383997865	186.758942075754	1970.2807266588	1199.81815388876	149.758942075754	1868.99241920051	1011.82287175263	149.163132678907	1981.90090147711	1244.30735963911	202.248168081213	2020.7184252892	837.429143613463	163.053800476695	1392.88760104964	1817.73464572706	217.558529116629	2752.86362593993	1064.44384393344	218.945003782882	1900.46713293728	1393.92871463643	146.057123506049	1957.8348067927	924.566401254675	207.548280260205	2035.42905054276	1363.8898731334	134.837760862727	2621.76711394538	903.787444129689	150.061156926116	2098.21255284553	1063.22895027546	155	2026.02804619881
840.222932651829	160.734284163753	1450.21665738554	1390.80835239239	266.433134678426	2082.85704945681	907.067436107775	197.916269102915	1649.24960345422	1446.30546838307	161.072906728724	2064.74404352193	1044.05982947917	186.832566436101	1974.34300728206	1201.27568305217	149.832566436102	1872.75066558237	1012.82385896094	149.180243124479	1985.64733383805	1245.9732572059	202.344600040119	2024.99410125313	838.916519453153	163.067134401264	1396.91167222909	1819.82704127575	217.702616735854	2758.69955354046	1065.4611533713	219.059655979933	1904.55953763301	1395.40971037836	146.098013173577	1962.08032453473	926.115686065825	207.632136587561	2040.79203198716	1366.13908029191	134.876872874622	2629.29968396112	906.323966709738	150.082403674188	2107.03546817758	1065.05475015527	155.043007445895	2032.32580189363
841.638059581441	160.814932899984	1455.42295602534	1393.23741186147	266.832705073484	2089.92809402594	908.369014956253	197.949265653595	1654.2365155966	1448.48280879872	161.106182896144	2071.65692527114	1045.36542586573	186.917596325812	1979.2037732442	1203.13720800425	149.917596325812	1877.38888873514	1014.31372209374	149.231768026354	1990.46619712963	1247.98081830385	202.464549363119	2030.17581335908	840.518645114622	163.088381149336	1401.20747536146	1822.22803751257	217.863388764279	2765.25664136631	1066.68606386414	219.194800106805	1908.9078331042	1397.3313252886	146.151556599585	1967.15082270896	927.745593359873	207.718500941078	2045.89580530939	1368.58342128398	134.915063851928	2636.61343113317	908.834508376251	150.101082211157	2115.26328201452	1066.8310661643	155.081953241451	2038.07147546176
843.015448300028	160.880392344938	1460.50115422916	1395.49644704454	267.196091956959	2096.82037206293	909.615852954828	197.983055770766	1659.18598046992	1450.71265103127	161.141805662347	2078.72227137656	1046.83759425048	187.005194426626	1984.38238505746	1205.22641553158	150.005194426626	1882.43305828162	1016.06725680637	149.309071015554	1995.7119748395	1250.1665390996	202.593975834879	2035.78449696612	842.143761941103	163.114159236662	1405.47487863537	1824.75646522307	218.020179483152	2771.97058034104	1067.98726912766	219.337474627582	1913.08258123948	1399.49536814281	146.216039613968	1972.46696264508	929.309432298782	207.799315893647	2050.27667220683	1371.04384493572	134.947526746202	2643.07790403745	911.117477219436	150.1138973788	2122.21915162859	1068.45482986267	155.1138973788	2042.87655121503
844.252379259014	160.92819262881	1465.00648574722	1397.4506725533	267.495336318554	2103.0166802927	910.694398205678	198.015617006337	1663.59648867994	1452.79582604199	161.175054304917	2085.23848045832	1048.31916798549	187.086437094256	1989.34203652826	1207.30647824248	150.086437094256	1887.3082201815	1017.83500299497	149.40137391287	2000.72759171879	1252.31921894107	202.716556885998	2041.26129959718	843.680392415614	163.142326853007	1409.38683300829	1827.19410572688	218.152669164231	2778.23515512008	1069.22208680827	219.472437569062	1916.66454139871	1401.66534379955	146.285887453312	1977.41517709372	930.673907431345	207.867035702693	2053.59709966748	1373.33146863903	134.971570525793	2648.16457828714	913.011318968963	150.118459717673	2127.42529169423	1069.83236338935	155.137588687379	2046.46105258205
845.24675462109	160.957166277391	1468.51637476071	1398.99534671034	267.711020599061	2108.0461339147	911.511089583178	198.043429648361	1667.01663184771	1454.53524116459	161.200863391861	2090.51513871228	1049.64837859107	187.153729188241	1993.5668565872	1209.12111668557	150.153729188241	1891.42323749578	1019.38829491033	149.496745709823	2004.950200244	1254.21697199221	202.81510662327	2046.05126934087	845.006117048217	163.170932971471	1412.6310132113	1829.30868760415	218.245231881581	2783.49138892379	1070.25727840455	219.583276545717	1919.30732438865	1403.59506372449	146.355746079713	1981.4430216733	931.741398680629	207.916442826201	2055.69295007316	1375.27798701631	134.986922974495	2651.53922733014	914.41542284303	150.1138973788	2130.66732321647	1070.89651559866	155.153293607093	2048.69885173412
845.91243411382	160.965872667385	1470.68190627786	1400.06641126782	267.835005242014	2111.54068515964	912.003530970891	198.060026144182	1669.10411369005	1455.77034423769	161.214979589957	2093.97174142461	1050.67906306179	187.201902564452	1996.62604864356	1210.43364540665	150.201902564452	1894.24807764887	1020.55446404921	149.584746088301	2007.97437430373	1255.65734409046	202.875465383237	2049.67480802035	846.002571257311	163.198833526873	1414.93586737486	1830.88493509581	218.287020697807	2787.28180569928	1070.98655866574	219.656900906065	1920.76545062333	1405.06067765322	146.418463369081	1984.11974320755	932.456707314924	207.942093445429	2056.56336198467	1376.75288830723	134.995349747749	2653.08613398008	915.294073015048	150.101082211157	2131.98139137165	1071.6072674563	155.162239137273	2049.61436097074
846.187900979967	160.952516025141	1471.2713914217	1400.63788368214	267.86877932862	2113.27886683603	912.144487697803	198.058248488548	1669.65956630392	1456.39665706612	161.214979589957	2095.23089788436	1051.29990777275	187.226379621326	1998.21969913348	1211.07069245325	150.226379621326	1895.40573187956	1021.22963382834	149.655399959881	2009.57406948903	1256.4916130867	202.888280550881	2051.79492826503	846.569449088499	163.224209336535	1416.09193822837	1831.7505058795	218.274205530163	2789.28366469735	1071.33855940412	219.686002022744	1920.90265676903	1405.88946683007	146.469643458514	1985.1657029689	932.809352048592	207.940766222532	2056.3306781236	1377.67652610766	134.998672777103	2652.88798155153	915.668353567341	150.082403674188	2131.59240178089	1071.95455040217	155.164807348377	2049.34914014398
846.041035546796	160.916442826201	1470.20126207503	1400.7152730776	267.820241129185	2113.21142211848	911.932248033282	198.031667427899	1668.63697458337	1456.37520441802	161.200863391861	2094.19071855927	1051.44370055477	187.225052398429	1998.19780194343	1210.95029431146	150.226379621326	1894.72078969424	1021.37965747386	149.70120924447	2009.68568387212	1256.64185649429	202.851162666755	2052.24858648086	846.636057725583	163.245970034358	1415.96569748889	1831.79904901862	218.209175838096	2789.32701209739	1071.28337689424	219.670218800069	1919.68428493077	1405.98425834566	146.506756605039	1984.46628361118	932.820775949594	207.911792573951	2055.183474176	1378.01691989029	135	2651.17735849066	915.595712144227	150.061156926116	2129.83235385034	1071.94861890282	155.162239137273	2048.11487694533
845.46739388479	160.857940345879	1467.52620007394	1400.31782132603	267.702052306364	2111.43460586392	911.378679556994	197.976400063552	1666.11398823809	1455.72308026544	161.176381527814	2091.00868683393	1051.0937399276	187.197252312201	1996.55437398856	1210.09241509767	150.203229787349	1892.23887122539	1021.03045126096	149.717080380523	2008.3732554706	1256.1060614525	202.769297338682	2051.04859186847	846.17453913108	163.262108231356	1414.50829156986	1831.01062005039	218.099928711546	2787.3937143249	1070.83015727282	219.613349285795	1917.15877274183	1405.33788351896	146.529561075111	1982.06332698486	932.533274717177	207.855285900085	2053.30976687812	1377.78779262017	135	2648.25148273552	915.150827533614	150.04072345119	2127.03897853978	1071.61434241295	155.15462082999	2046.12955548755
844.492272371619	160.778859701044	1463.42927949127	1399.48015238396	267.528413137722	2108.16834229363	910.50681053977	197.892757079845	1662.26511493387	1454.51562447901	161.146455914597	2086.0829945556	1050.2729415114	187.141979385633	1993.41632953301	1208.60528663365	150.159706663389	1888.21390467127	1020.24423309347	149.70120924447	2005.788689709	1254.95053779509	202.654334594846	2048.37297816059	845.205716008846	163.272015182628	1411.77135579872	1829.45503206871	217.958493500288	2783.63363000944	1070.02506362776	219.523495686585	1913.45316896499	1404.0323012875	146.540437216045	1978.15132487479	932.001011344446	207.774209448794	2050.86966947754	1377.0453318512	135	2644.43169214968	914.410964764495	150.023779221956	2123.51160036804	1070.99082869418	155.142238939629	2043.59623413432
843.167592049047	160.684877040245	1458.19634829051	1398.24840704646	267.316061801114	2103.72512524101	909.345818377707	197.785959251402	1657.33436717632	1452.86371278794	161.117932698753	2079.97224622772	1049.04753806829	187.0626578723	1989.02013900813	1206.67165697202	150.102837149115	1883.06237927155	1019.11042047827	149.655399959881	2002.14014219637	1253.30212026199	202.521846592455	2044.52691212392	843.807387419544	163.275353201513	1407.91109027212	1827.29623065053	217.798786836899	2778.35477838003	1068.94930845708	219.409965837903	1908.76640257782	1402.23605822407	146.542040927196	1973.05403162851	931.282548804445	207.673127237637	2047.98830778452	1375.88300431283	135	2640.02275761259	913.455315337885	150.011749802608	2119.49409829955	1070.13401791095	155.125647181409	2040.68844124264
841.571508618482	160.58433630369	1452.17758908364	1396.68730809093	267.082403674188	2098.46132106654	907.935248797591	197.665412754981	1651.60777111421	1450.90376081746	161.09668595068	2073.28587540664	1047.51206699355	186.964470975436	1983.68397783181	1204.50617035001	150.04072345119	1877.2937531003	1017.73084856271	149.584746088301	1997.67302880149	1251.32303662887	202.388029688479	2039.89724016612	842.102881852488	163.272015182628	1403.18552381825	1824.76629801175	217.635482334591	2772.00745938595	1067.70603397505	219.282043233297	1903.36800873647	1400.17329829086	146.536134697207	1967.20327215083	930.439348553237	207.559229858837	2044.77231651097	1374.4258015453	135	2635.31227512763	912.360911070973	150.004650252251	2115.19137134568	1069.1137802961	155.105732463407	2037.56163846388
839.803137000882	160.486143844604	1445.75482764098	1394.8832909695	266.844850113262	2092.74967825336	906.332359783552	197.54265051847	1645.40422803504	1448.78322031013	161.08609715463	2066.59444199294	1045.78189423536	186.856439399695	1977.77952189115	1202.32232228303	149.982098998958	1871.42914904636	1016.21332390623	149.496745709823	1992.66530904676	1249.19024375845	202.266514002396	2034.90156042169	840.253058105917	163.262108231356	1397.93921930238	1822.13804266984	217.480949417978	2765.15258930104	1066.41595101237	219.146883629658	1897.59630585209	1398.0944310362	146.522911957491	1961.1053966207	929.542304586524	207.440770141163	2041.34277914487	1372.82839383904	135	2630.57934866701	911.214192735839	150.001327222897	2110.80251533143	1068.02041509087	155.083730897085	2034.36815991055
837.97544882514	160.399779491087	1439.30668994746	1392.93854382625	266.620230217121	2086.94147221513	904.613473108796	197.428753139669	1639.06072574945	1446.65052776838	161.086263370969	2060.36085140079	1043.98317880451	186.750162761913	1971.70922093945	1200.29825278879	149.934446813408	1865.93774901095	1014.67227633977	149.400046689974	1987.43453474102	1247.07181753961	202.167166098974	2029.94199007775	838.429554475072	163.245970034358	1392.57399172803	1819.67962663009	217.345927263016	2758.40421633168	1065.2030001914	219.013077025505	1891.84405388592	1396.23325497746	146.501040987752	1955.29272482644	928.668091472906	207.326872762363	2037.85736102222	1371.25539206731	134.998672777103	2626.10184334808	910.106483877726	150	2106.5442492938	1066.95105521403	155.061156926116	2031.2658975453
836.203872845654	160.333300670248	1433.17719473998	1390.96562283537	266.422459355509	2081.3423375254	902.872086328701	197.333300670248	1632.91432642743	1444.64926207137	161.094153476797	2054.90761349872	1042.23873292752	186.6565326417	1965.86891774727	1198.55866367655	149.902502676058	1861.17617680681	1013.22218123478	149.303093540407	1982.32070901344	1245.10641332819	202.09397975351	2025.3611698529	836.789290950168	163.224209336535	1387.49299728193	1817.60609947768	217.236418278605	2752.33136566791	1064.17478421642	218.886196096799	1886.50930726409	1394.76660796955	146.468404148995	1950.24462745457	927.891576053117	207.225790551206	2034.50386734688	1369.85179757925	134.994022524852	2622.13309096017	909.12182412674	150	2102.63626393981	1065.99062641025	155.04072345119	2028.40427933452
834.59944108371	160.289842791615	1427.65986701895	1389.07993788223	266.259917883821	2076.20262719928	901.214706662521	197.260869143033	1627.28238657615	1442.91418065713	161.105732463407	2050.4302434619	1040.66582621254	186.585484241078	1960.62448769849	1197.1786899432	149.887517757474	1857.37717160936	1011.97784938243	149.214040748598	1977.66743538672	1243.40436098506	202.046156751962	2021.42334527252	835.455715481425	163.198833526873	1383.06028130223	1816.05801792458	217.156463902523	2747.40207278401	1063.41586341687	218.773084466294	1881.96079214097	1393.79485527628	146.42435293085	1946.33586708298	927.281087498449	207.143386877018	2031.47074823449	1368.73013928606	134.983599945141	2618.86516588323	908.330244578525	150	2099.26829592101	1065.20474840273	155.023779221956	2025.90132700142
833.253567173512	160.269034058427	1422.97926077502	1387.38658617738	266.136790758443	2071.70531303387	899.745722644458	197.212527384561	1622.42936541489	1441.56092813442	161.115224601697	2047.01595087345	1039.35534311964	186.540913510961	1956.27128518777	1196.17997661104	149.887429844096	1854.64526139062	1011.03157481542	149.138736624767	1973.77193480949	1242.03009561998	202.019054500653	2018.29440299449	834.502025408501	163.170932971471	1379.54902284875	1815.08072633637	217.106009172858	2743.89905616521	1062.97073608452	218.678293339523	1878.47341490336	1393.33243332545	146.368561247357	1943.76769301049	926.881257549395	207.082229950902	2028.91671100601	1367.93859430733	134.963143752539	2616.38957673072	907.766307002216	150	2096.56265544891	1064.61836912718	155.011749802608	2023.82347653939
832.229142277605	160.266149113529	1419.27604773862	1385.96815116266	266.050829721889	2067.96258449704	898.550726966172	197.185072662238	1618.53699635525	1440.6647488662	161.118459717673	2044.65720079204	1038.37095177386	186.524233839362	1953.00574064641	1195.54652624206	149.898917788843	1852.96925187496	1010.44537068765	149.080902728005	1970.84141267052	1241.01213006697	202.005977475148	2016.03825326014	833.94923926722	163.142326853007	1377.11277106236	1814.63370471161	217.082229950902	2741.89889174507	1062.8436537383	218.605403766254	1876.19442145371	1393.32014765653	146.30456599028	1942.55183339332	926.703028990584	207.040179276815	2026.92499651187	1367.45768774078	134.929519851706	2614.65739898743	907.42308758802	150	2094.53221365457	1064.21358832687	155.003323029354	2022.1584239145
831.552472348724	160.273430318903	1416.60250627541	1384.87503158166	265.995176024463	2065.01502903546	897.683234936839	197.172348107746	1615.68371245175	1440.24338986895	161.113897378801	2043.26353946197	1037.74113038421	186.531683764383	1950.90250202526	1195.23346016192	149.916269102915	1852.24184022034	1010.2403820066	149.041506499712	1968.96107656059	1240.34263887516	202	2014.61969707026	833.773187523344	163.114159236662	1375.77650352437	1814.61605919041	217.078884203872	2741.28161066934	1063.00207340531	218.554941795679	1875.12657611676	1393.65053962629	146.23728636204	1942.52826136295	926.723055966346	207.011749802608	2025.48229192429	1367.21020704073	134.880392344938	2613.47117824686	907.252941553942	150	2093.06688066794	1063.93843038198	154.996676970646	2020.80692405002
831.2080824493	160.282113991221	1414.91413100489	1384.11435307485	265.958747492063	2062.82154815391	897.154926649783	197.16821661242	1613.83185367488	1440.24286477762	161.101082211157	2042.65575466146	1037.45644082661	186.555196438769	1949.90663442393	1195.1701490512	149.932865598736	1852.2709809603	1010.39270214762	149.017727277756	1968.08525404657	1239.97817347194	201.994022524852	2013.91033005308	833.912415088866	163.087053926439	1375.44288154201	1814.88456690253	217.087053926439	2741.76858297483	1063.38176261019	218.523971981501	1875.13988716318	1394.18869804591	146.171990074511	1943.41294634237	926.890799458953	206.989577420289	2024.49780902547	1367.08322316619	134.814932899984	2612.53746564057	907.180615139821	150	2091.96774993056	1063.71718845534	154.986922974495	2019.6076360366
831.145134728788	160.284594288947	1414.08465477902	1383.65383947519	265.926999795676	2061.27872936071	896.938607774264	197.166134571274	1612.8494869504	1440.54493258852	161.082403674188	2042.58270696039	1037.47882715873	186.58685635972	1949.84589577416	1195.26998029151	149.942876493951	1852.79764690398	1010.84843065754	149.005977475148	1968.06046433093	1239.850825642	201.982272722244	2013.70646971538	834.281748822978	163.062484149013	1375.92275013826	1815.28074694128	217.097759181803	2742.99376372316	1063.90000238162	218.506489406152	1876.00876340637	1394.7941408983	146.114957402811	1944.86600243105	927.137515294423	206.965798198333	2023.8249981244	1366.95162972435	134.73561138665	2611.53172419278	907.117298538643	150	2090.98656646035	1063.46900373618	154.971570525793	2018.370741387
831.288893996255	160.276136516073	1413.91968419465	1383.42825053207	265.883992487723	2060.22474748697	896.975009611772	197.162239137273	1612.53013203227	1440.99250709992	161.059829703219	2042.73532675532	1037.74824301617	186.616620563771	1950.46105969167	1195.43981245025	149.939364530583	1853.52102797718	1011.53117985405	149.001327222897	1968.6559469118	1239.87588889053	201.958493500288	2013.75732043605	834.786644527913	163.04072345119	1376.96496505437	1815.65172885131	217.100820353295	2744.56156907174	1064.46683971994	218.493510593848	1877.453086187	1395.33717752475	146.069152925397	1946.54447975781	927.391871366514	206.935497326854	2023.30623776256	1366.71058607801	134.647611008172	2610.18488408841	906.982688384762	150	2089.88970019991	1063.1259867313	154.947526746202	2016.9317886877
831.559406095601	160.255703041147	1414.19019478522	1383.36356891967	265.81510662327	2059.47149721081	897.19310760123	197.15462082999	1612.63105538999	1441.43286897149	161.034745976042	2042.78808700854	1038.18791998676	186.636532848037	1951.43497978962	1195.58480934103	149.917770049098	1854.12023101629	1012.3502684164	149	1969.58900536851	1239.96215023255	201.917770049098	2013.78797531044	835.332086174735	163.023779221956	1378.29658342055	1815.86358605091	217.088703020569	2746.09686250267	1064.99505759036	218.476028018499	1879.17922223248	1395.70394829435	146.036856247461	1948.14137898873	927.593763495929	206.896792399797	2022.803167749	1366.292127533	134.558252407179	2608.3423782162	906.719066117253	150	2088.50403695684	1062.6481933398	154.915063851928	2015.18921061058
831.886223503284	160.224642613818	1414.66420806401	1383.3879824095	265.709357004408	2058.83478583996	897.519660717316	197.142238939629	1612.91018975847	1441.75003797628	161.0060519442	2042.45377157594	1038.71479131261	186.64110461422	1952.440904405	1195.62049617146	149.875742092688	1854.29216108489	1013.20974645632	149	1970.56456011711	1240.02400811781	201.856613122982	2013.53911709316	835.834554947219	163.011749802608	1379.64827388554	1815.81297031478	217.055446649855	2747.26758236291	1065.40963758688	218.446385427218	1880.90483714404	1395.80651025927	146.016400054859	1949.39088162243	927.697373858052	206.850461924548	2022.21542796219	1365.66901889774	134.476299165728	2605.97576158082	906.29697197256	150	2086.73862432592	1062.02238844089	154.876872874622	2013.11829183013
832.218207850301	160.186804107525	1415.14030927986	1383.44680823616	265.561234065231	2058.16461742062	897.891290192193	197.125647181409	1613.16265444911	1441.88764044096	160.971570525793	2041.53061041625	1039.24833042683	186.628035316859	1953.18092372825	1195.48314047267	149.813605677087	1853.78720522019	1014.01658824185	149	1971.30625743315	1239.99363930958	201.774209448794	2012.8002137109	836.229008012569	163.004650252251	1380.78810636333	1815.43700031395	216.998418785329	2747.81052322969	1065.6544803637	218.400573708894	1882.39270577872	1395.58970295104	146.005977475148	1950.08226177874	927.678818452922	206.800114059796	2021.48760333319	1364.85043423705	134.410080164922	2603.1672139904	905.71679954494	150	2084.5885230622	1061.26251388983	154.837760862727	2010.76484680311
832.524190600533	160.146455914597	1415.46707757436	1383.50239967809	265.372037369774	2057.36054140339	898.257126542296	197.105732463407	1613.23931225361	1441.84554925403	160.9270705536	2039.93043572018	1039.71262952137	186.598097168324	1953.42054548852	1195.12844986754	149.734284163753	1852.44094237889	1014.68932427773	149	1971.59229522497	1239.82005014639	201.67180001474	2011.43370082672	836.468504128139	163.001327222897	1381.53463603328	1814.71101286063	216.917770049098	2747.53548981726	1065.69608580813	218.339433938232	1883.46021662784	1395.03103551265	146.001327222897	1950.06215992811	927.527898289272	206.749491385479	2020.60236858301	1363.86827642447	134.365142108272	2600.06930564671	904.999111621602	150	2082.11890123949	1060.39439354952	154.803698947011	2008.22118771503
832.790289709702	160.107510119041	1415.55745578941	1383.53294814029	265.150927349548	2056.38161862834	898.58252898708	197.083730897085	1613.06214508565	1441.66988756243	160.871017371384	2037.69781371086	1040.04806949045	186.553252383689	1953.02768161866	1194.54162728391	149.641633533025	1850.20892308185	1015.16937187772	149	1971.30105712818	1239.47803057025	201.554579606586	2009.40636997712	836.530451899291	163	1381.77374997073	1813.65676487495	216.816687837942	2746.34449045309	1065.527385769	218.268422033417	1883.99578335644	1394.15254420793	146	1949.25033357237	927.248980869371	206.70314023038	2019.56932786237	1362.76369407413	134.344600040119	2596.85246956213	904.176416266996	150	2079.43302079491	1059.44799234408	154.78045807117	2005.58883485889
833.013827403764	160.072906728724	1415.39532261252	1383.52975184212	264.911730522751	2055.24856494387	898.848395612525	197.061156926116	1612.62654845705	1441.43514944456	160.803966145897	2035.00756095735	1040.22000199544	186.496745709823	1951.98515452188	1193.74324624948	149.54185235232	1847.17664647804	1015.43477996211	149	1970.42491207257	1238.97251001581	201.429020338555	2006.79251270367	836.412025288637	163	1381.46511121622	1812.33614876594	216.701035521183	2744.24272309301	1065.16710286044	218.196033854103	1883.96871362509	1393.01627258857	146	1947.65660981507	926.852244883998	206.66576252622	2018.4178426045	1361.5767596338	134.348902558957	2593.67996325415	903.284101090953	150	2076.65302574313	1058.44645190031	154.772205242399	2002.96234442346
833.19891377456	160.045373703441	1415.02515973037	1383.49237048355	264.671755118995	2054.02871516978	899.047779762718	197.04072345119	1611.98432687584	1441.22245750804	160.731577966583	2032.12354255334	1040.22640277622	186.431540394586	1950.39474142308	1192.7960421296	149.440770141163	1843.56804563532	1015.5025807052	149	1969.07668513089	1238.34153355425	201.303093540407	2003.77396211931	836.134580101363	162.998672777103	1380.64173260072	1810.85159101238	216.57844674192	2741.34792039686	1064.65771016483	218.128982628616	1883.42579256501	1391.72577836968	146	1945.39056025051	926.350945723719	206.640132586841	2017.18000759072	1360.34539021512	134.374766521834	2590.67090411406	902.356252152746	150	2073.88662713981	1057.4067531376	154.779130848273	2000.40777654956
833.35561168995	160.025106444853	1414.54162434901	1383.43051978735	264.448665157896	2052.82336582825	899.185138823114	197.023779221956	1611.22583011566	1441.10879831605	160.661893284665	2029.36157453692	1040.09425185133	186.360396331964	1948.45432749813	1191.79622530313	149.344250268879	1839.71257955573	1015.42008580997	149	1967.45563294987	1237.65064024131	201.185067100016	2000.61250058175	835.738585048745	162.995349747749	1379.40835693213	1809.33651890395	216.457082282644	2737.89601786909	1064.05957090427	218.0729294464	1882.48655453725	1390.4148059344	146	1942.66532020732	925.762839857489	206.628377977059	2015.88477474338	1359.11093242253	134.417794647578	2587.89343752542	901.42470915284	150	2071.21468135051	1056.34608490694	154.799048694761	1997.95952787439
833.49825988392	160.011749802608	1414.06038923287	1383.3649971881	264.257286155703	2051.73969743463	899.273329550062	197.011749802608	1610.44955564062	1441.15193524917	160.605403766254	2027.01754636181	1039.87587553886	186.287214676209	1946.41760109562	1190.86517673825	149.257284255818	1835.99455971573	1015.25493901731	149	1965.80737117372	1236.98451483613	201.082229950902	1997.60540868628	835.282965874665	162.988250197392	1377.91952758483	1807.93923711199	216.344338182257	2734.20132757118	1063.4414380015	218.028429474207	1881.31500706039	1389.23063199774	146	1939.76444970939	925.108639652407	206.628382784233	2014.56426917011	1357.92239141123	134.471504289925	2585.37098276241	900.522587351372	150	2068.69277355203	1055.28838032673	154.824683837222	1995.62744761533
833.645238181834	160.004650252251	1413.69444957912	1383.32198173109	264.107139954792	2050.86846703611	899.329256060928	197.004650252251	1609.7438098862	1441.38334281829	160.570014627641	2025.31199349224	1039.63709061926	186.216039613968	1944.55492417425	1190.12207747025	149.183312162058	1832.79308619702	1015.08239653798	149	1964.38805210078	1236.42893018383	200.999826276713	1995.04037246856	834.837662204846	162.976220778044	1376.36327903286	1806.80844258169	216.245796311072	2730.62543310698	1062.875445446	217.9939480558	1880.10160979055	1388.31642083812	146	1937.01161864864	924.420742088795	206.636005829117	2013.25154503896	1356.84193676823	134.528495710075	2583.09159555832	899.686740433927	150	2066.35163684975	1054.26839271851	154.847116177518	1993.40359645127
833.820921687162	160.001327222897	1413.53729617146	1383.33822308104	264.000202240398	2050.27188085838	899.376749541568	197.001327222897	1609.17968252455	1441.81387188049	160.560828228962	2024.35697038172	1039.44445245503	186.151556599585	1943.09632718966	1189.66196304625	149.1239101739	1830.40375726474	1014.97227064116	149	1963.41661417109	1236.05293826499	200.940424288555	1993.13662498922	834.473156824733	162.95927654881	1374.92815719528	1806.06665138768	216.16463362509	2727.51761419878	1062.42360673022	217.965254023958	1879.02796694691	1387.78579196155	146	1934.71755440883	923.742676785814	206.644689501435	2011.9924563759	1355.94228224816	134.582205352422	2581.03666009475	898.959003715841	150	2064.21321169622	1053.33473527148	154.857940345879	1991.27821366043
834.051807014852	160.001327222897	1413.64628753489	1383.45063254695	263.933586596059	2049.97378936328	899.441933575266	197	1608.80264265181	1442.43387706597	160.576969554446	2024.14088557633	1039.35036176848	186.098013173577	1942.20338869081	1189.52946564986	149.080211426769	1828.99591914732	1014.97927565792	149	1963.05129667237	1235.89103469778	200.903829898955	1992.01276411396	834.248182591323	162.938843073884	1373.7822110515	1805.78741746621	216.103990648725	2725.17023680978	1062.13051342912	217.940170296781	1878.24965965646	1387.69930147793	146	1933.13937150881	923.127455964806	206.648155182547	2010.85686573853	1355.29823159564	134.626560701063	2579.21959658717	898.381611169672	150	2062.31410735486	1052.54275094941	154.849513572625	1989.2678530425
834.362983371872	160.004650252251	1414.04330687968	1383.69304531343	263.90059478298	2049.96724713376	899.549875017619	197	1608.63650712239	1443.22441895142	160.61311824891	2024.55399177757	1039.38422588379	186.057123506049	1941.94155848847	1189.71328168008	149.052678401485	1828.57949641892	1015.13215144663	149	1963.35751812989	1235.93754708165	200.887517757474	1991.66557741716	834.200213470339	162.917596325812	1373.03530501915	1805.98372449656	216.064428204093	2723.74231659825	1062.0157071157	217.917596325812	1877.85260708216	1388.05544988068	146	1932.41326473966	922.628244339222	206.640130686957	2009.91595150093	1354.96854261243	134.655747693294	2577.67507828213	897.988051601066	150	2060.68908077031	1051.94396022478	154.818686703311	1987.40853068104
834.775223521763	160.011749802608	1414.73594083616	1384.08752592312	263.892080096347	2050.24502342616	899.71907227402	197	1608.69952649684	1444.16054511319	160.661095118515	2025.4436870052	1039.54985027229	186.029756697104	1942.2812118606	1190.15016532587	149.041506499712	1829.01939254822	1015.42821849576	149	1964.29871928346	1236.15314698392	200.887429844096	1991.98093849331	834.34003090275	162.898917788843	1372.7413261046	1806.60168433661	216.046156751962	2723.26643197104	1062.070087402	217.898917788843	1877.86082839378	1388.78553902676	146	1932.54904726668	922.288635902708	206.617742638981	2009.23352539305	1354.98664559632	134.668476985386	2576.46078683734	897.79919489093	150	2059.37456501907	1051.57762603803	154.766233108276	1985.76003371656
835.298331130058	160.023779221956	1415.71789976243	1384.63777805362	263.90024501174	2050.79705116519	899.956842115974	197	1608.99800655042	1445.21559702144	160.712101263465	2026.64869294585	1039.8216158309	186.013077025505	1943.10161476652	1190.73679975485	149.048606050069	1830.05841493451	1015.82913072809	149	1965.73402103633	1236.46869133067	200.898917788843	1992.75032697768	834.648962434528	162.8861026212	1372.8863149374	1807.52574373343	216.048606050069	2723.6237478205	1062.25643354903	217.8861026212	1878.22442335928	1389.7628331961	146	1933.41510937301	922.132109948986	206.580883691746	2008.85204038121	1355.34280687124	134.664614588832	2575.62411948153	897.812541884668	150	2058.39329476996	1051.45785772885	154.697712491829	1984.38546342186
835.929571531222	160.04072345119	1416.99043926027	1385.32875800385	263.917596325812	2051.63634417457	900.257412234679	197	1609.54552335484	1446.3603983418	160.758940175869	2028.05751259153	1040.16184017117	186.004650252251	1944.23325339892	1191.36025743374	149.073803177647	1831.38120687403	1016.27950118225	149	1967.46226959065	1236.81172610902	200.917596325812	1993.72432629495	835.086177732632	162.881540282327	1373.40385169524	1808.60386994324	216.069152925397	2724.58136506962	1062.52126419396	217.881540282327	1878.84276998756	1390.82772787469	146	1934.76799709268	922.155921279964	206.530888298008	2008.77567637086	1355.98153821354	134.648370564023	2575.1672535975	898.003833575173	150	2057.73776960995	1051.56558646692	154.620474698331	1983.32269889699
836.658518730516	160.061156926116	1418.56570163412	1386.13510640554	263.938843073884	2052.79006570819	900.610289048112	197	1610.35865536497	1447.5724150413	160.797581585912	2029.62623139319	1040.53043729904	186.001327222897	1945.49434913765	1191.92475671509	149.114957402811	1832.68103133886	1016.72363907083	149	1969.2720212022	1237.12174307697	200.938843073884	1994.65962289835	835.59798131729	162.884775398303	1374.1976823372	1809.67340910058	216.103207600203	2725.84784615075	1062.80658233341	217.884775398303	1879.59863530025	1391.8168089085	146	1936.30807053776	922.334029770871	206.470960381588	2008.98662869424	1356.80773464212	134.6263642601	2575.04996256224	898.33083955064	150	2057.38183240213	1051.8517837776	154.54546343198	1982.58028461622
837.469295113633	160.082403674188	1420.45980001616	1387.02808561455	263.95927654881	2054.28411183804	901.008109831973	197	1611.45626330272	1448.83758246436	160.827651892254	2031.37456731587	1040.89825274314	186	1946.74282820384	1192.37483278571	149.168667045158	1833.73262723865	1017.1271182485	149	1971.00630992136	1237.36457639883	200.95927654881	1995.3763927827	836.127170796476	162.894267536593	1375.16154345316	1810.59393654044	216.143560600305	2727.13168662628	1063.06639023802	217.894267536593	1880.39019932205	1392.59884285112	146	1937.74141822292	922.626340408729	206.407018772233	2009.4512469024	1357.70355529218	134.606381217911	2575.18163699048	898.743218911731	150	2057.28012870805	1052.24214176198	154.482276640875	1982.12455239966
838.344881300435	160.101082211157	1422.6826524182	1387.9835248158	263.976220778044	2056.13044105198	901.452391419477	197	1612.85246716354	1450.15087379756	160.851783585223	2033.36090673328	1041.25869932645	186	1947.89955064004	1192.70805284291	149.230186811682	1834.43598016084	1017.49438705233	149	1972.59768647466	1237.54211392334	200.976220778044	1995.7881253343	836.627045728822	162.905846523204	1376.20092158509	1811.27608958867	216.183485885345	2728.20817864641	1063.27728268648	217.905846523204	1881.15847535459	1393.1007348156	146	1938.84495428326	922.984314086832	206.345551299331	2010.12856449579	1358.54388929999	134.596858080002	2575.43854233075	899.188515763617	150	2057.373803233	1052.6488560627	154.440596417877	1981.88533110861
839.267724815605	160.1138973788	1425.21087814095	1388.98368026325	263.988250197392	2058.29090142386	901.952254409277	197	1614.53199271931	1451.51053540813	160.873025595694	2035.62651482939	1041.62267998071	186	1948.96138116039	1192.96526051506	149.292536570932	1834.82870663339	1017.85869229839	149	1974.07705672803	1237.67858418497	200.988250197392	1995.91173376881	837.066655836693	162.915063851928	1377.24898094915	1811.70032388371	216.214979589957	2728.96437747423	1063.4443465202	217.915063851928	1881.9007683692	1393.32560805705	146	1939.51149407638	923.362118617753	206.293603835852	2010.97757783838	1359.22218088018	134.604076543357	2575.68722744235	899.620434380471	150	2057.5987445722	1052.98732398279	154.426480219781	1981.77049713827
840.219904700566	160.118459717673	1427.97188638208	1390.01484629637	263.994022524852	2060.66778979387	902.520899065172	197	1616.43682046253	1452.90846651543	160.894267536593	2038.1485565119	1042.00771061454	186	1949.96881807868	1193.20604076905	149.350289795226	1835.04208145503	1018.26786781804	149	1975.53062126073	1237.8070294749	200.995349747749	1995.83251735254	837.432206237624	162.91855309762	1378.26615777241	1811.90772647435	216.232357096474	2729.40460562539	1063.59294996211	217.91855309762	1882.65615826966	1393.3396482569	146	1939.76048299962	923.719497096035	206.256652168065	2011.9527276971	1359.66221670428	134.630399580052	2575.80579215772	900.002405353855	150	2057.88883971904	1053.19009713399	154.442351355835	1981.68284034611
841.178373049442	160.1138973788	1430.84039236219	1391.0591822062	263.994022524852	2063.1034313316	903.161436519528	197	1618.45886509049	1454.31888132643	160.916269102915	2040.82169958956	1042.42695811133	186	1950.97795897077	1193.48380020008	149.399269203673	1835.24128662449	1018.7600642405	149	1977.0580422901	1237.95055784028	200.998672777103	1995.66431698982	837.719942884805	162.915063851928	1379.23220460386	1811.9745534124	216.232357096474	2729.62591262095	1063.75463654679	217.913736629031	1883.48036343647	1393.24404313552	146	1939.7125799513	924.022977956145	206.236850780892	2012.99699551315	1359.82544767932	134.672947952129	2575.69317942355	900.305166416419	150	2058.17125040334	1053.21361755699	154.485078479568	1981.5296700453
842.112141409587	160.101082211157	1433.6418972062	1392.08836904326	263.988250197392	2065.39363996305	903.861797673733	197	1620.4452565231	1455.69285142289	160.937515850987	2043.44806412846	1042.88017527292	186	1952.00771178876	1193.82284403384	149.435407598314	1835.54839350332	1019.34671843271	149	1978.70553687014	1238.11030216389	201	1995.4898335351	837.932840803386	162.905846523204	1380.12948414496	1811.98786559794	216.214979589957	2729.75516222305	1063.95463051184	217.901196270953	1884.40706591856	1393.14619453562	146	1939.53203399974	924.246537442999	206.232719285566	2014.034695128	1359.7081885535	134.726141966036	2575.28451727723	900.506261348418	150	2058.3682785856	1053.0426617299	154.548280260205	1981.23760542938
842.982566076367	160.082403674188	1436.17777551074	1393.05831512034	263.976220778044	2067.31920757355	904.587393190354	197	1622.21942734213	1456.95762940646	160.954626296559	2045.76894291338	1043.34481443996	186	1953.02740967373	1194.20253752709	149.457256005931	1836.00210080762	1019.99989219213	149	1980.44297244962	1238.25852149569	201	1995.33524819056	838.066836662603	162.894267536593	1380.93169544299	1812.00431800686	216.183485885345	2729.89980313375	1064.19589280878	217.882517733985	1885.42614530427	1393.11604982421	146	1939.37549575466	924.370994491048	206.239041299998	2014.97354558717	1359.34095298119	134.779310133782	2574.55457346311	900.592384833435	149.998672777103	2058.40140557049	1052.69080574317	154.620386784953	1980.76031483198
843.746658298883	160.061156926116	1438.26644946216	1393.91288109739	263.95927654881	2068.6968609051	905.286106970651	197	1623.61923527179	1458.03149260993	160.963143752539	2047.53721311866	1043.77931741415	186	1953.94638015682	1194.56582820361	149.464723086406	1836.53706631553	1020.65274832025	149	1982.15277565325	1238.34608959661	201	1995.15701042649	838.112885472655	162.884775398303	1381.59326345354	1812.04026496846	216.143560600305	2730.09793774403	1064.45560231746	217.85966895345	1886.46752167437	1393.17543722716	146	1939.33875273888	924.383436557455	206.249293063712	2015.7038374788	1358.77526282968	134.822009732665	2573.50579084291	900.557640944846	149.995349747749	2058.18893677616	1052.19257354284	154.688744243974	1980.07312408597
844.359469238562	160.04072345119	1439.77344232718	1394.58657949465	263.938843073884	2069.40935073236	905.891951169095	197	1624.5248274135	1458.83888290029	160.958493500288	2048.57034476458	1044.13166352628	186	1954.64555114168	1194.83568459444	149.45866562961	1837.02098662826	1021.21449576505	149	1983.66715299663	1238.31841193409	201	1994.87200162064	838.056510634646	162.881540282327	1382.05687721022	1812.07018182876	216.101880377306	2730.30825353139	1064.69166629083	217.83483935599	1887.41432781956	1393.29337207625	146	1939.43874647886	924.279524059187	206.257030264044	2016.12486347101	1358.07878109493	134.846190543271	2572.17825630551	900.408961275498	149.988250197392	2057.67055681682	1051.59844100219	154.742192387598	1979.18085290827
844.781587439183	160.023779221956	1440.64573460131	1395.01348830348	263.917596325812	2069.43995909934	906.3373129347	197	1624.89126163621	1459.32171451596	160.938226241701	2048.81741397653	1044.35216728557	186	1955.01806169099	1194.94395722451	149.441747592821	1837.3082259077	1021.59280520651	149	1984.82256563186	1238.13368143241	201	1994.40004735936	837.884303195843	162.8861026212	1382.26337639464	1812.040775163	216.064502673146	2730.42428764792	1064.85180802849	217.807218417328	1888.12607022859	1393.40342408607	146	1939.6157945797	924.063532706663	206.25613631843	2016.16079663638	1357.3255772281	134.846190543271	2570.6392844164	900.166572096175	149.976220778044	2056.81643728826	1050.96453223738	154.77167697491	1978.11324760946
844.988119256793	160.011749802608	1440.92604496069	1395.1401771959	263.898917788843	2068.87585956163	906.565738259256	197	1624.76016521425	1459.45995694159	160.901986826423	2048.38589178182	1044.40244436356	186	1955.00193501049	1194.85107255207	149.41742419649	1837.29068999108	1021.71503584349	149	1985.50567831842	1237.77710440665	201	1993.69855413659	837.590525636704	162.898917788843	1382.17383996059	1811.89667591691	216.036856247461	2730.32675920664	1064.89009058151	217.77633483784	1888.48044507192	1393.42874179248	146	1939.77199740316	923.749008013734	206.244106899082	2015.78023301429	1356.58662491885	134.823336955562	2568.98178107883	899.860727462853	149.95927654881	2055.64312868029	1050.34567491572	154.775513954015	1976.92135694232
844.972592329757	160.004650252251	1440.74408295689	1394.94151205129	263.886102621199	2067.89134071994	906.544353791155	197	1624.25009684936	1459.27786687871	160.853093652666	2047.53164012253	1044.26998080535	186	1954.60542858777	1194.56667063777	149.390912584918	1836.94457726982	1021.54993858565	149	1985.69258320805	1237.27065690693	201	1992.7922476466	837.185838293361	162.917596325812	1381.78097580028	1811.60601637474	216.021050307109	2729.91540760619	1064.78031171179	217.740261638901	1888.39857490425	1393.31329656996	146	1939.79720115972	923.358269043033	206.219629842208	2015.01229691351	1355.92404272719	134.783960386032	2567.32477899665	899.529928826425	149.938843073884	2054.22366511954	1049.78793597945	154.755530911825	1975.67752251687
844.751233409964	160.001327222897	1440.29642471315	1394.42381628085	263.881540282327	2066.71550082196	906.271078209793	197	1623.53856709224	1458.83720301983	160.797037411537	2046.6161402901	1043.97428394391	186	1953.9241005087	1194.15459217143	149.368646460961	1836.3544863595	1021.12057017266	149	1985.47269538635	1236.67686362128	201	1991.78652433889	836.701849973305	162.938843073884	1381.12728598461	1811.18277856993	216.017727277756	2729.17140784084	1064.52916800121	217.697958872924	1887.88253199415	1393.04529651025	146	1939.62755235912	922.925091902597	206.186140331139	2013.94538572691	1355.38711478364	134.737891768644	2565.79922849069	899.215900976585	149.917596325812	2052.67990564772	1049.32575561713	154.720164490889	1974.46442729255
844.363045070984	160	1439.80471227861	1393.63221196736	263.884775398303	2065.58325595665	905.778903308373	197	1622.82568378041	1458.23366458565	160.741214797998	2046.02636156974	1043.56512398664	186	1953.11247563579	1193.72106586978	149.357327294384	1835.68972453088	1020.5029573726	149	1985.02172199808	1236.08506004067	201	1990.83817099594	836.184833408199	162.95927654881	1380.29772456585	1810.68132252723	216.02643366775	2728.16103367439	1064.17280870739	217.651882527392	1887.01248293502	1392.662294623	146	1939.25929945866	922.48684583538	206.148210852555	2012.70874601921	1355.00688114365	134.695399951188	2564.52459974156	898.954826992651	149.898917788843	2051.1596435405	1048.97647976936	154.678999896329	1973.35623525967
843.859207338552	160	1439.47136184241	1392.63777931956	263.892940313696	2064.68845091453	905.127281904595	197	1622.29523086672	1457.56664377784	160.693404144731	2046.08183541216	1043.11633077002	186	1952.3699542318	1193.392734609	149.362487662478	1835.18128948613	1019.81327596242	149	1984.57923260306	1235.59871809638	201	1990.13665848634	835.694570233766	162.976220778044	1379.42443400064	1810.19602111083	216.046700926337	2727.06377421349	1063.77398725036	217.605930785174	1885.95588586365	1392.24999821811	146	1938.78833618867	922.084888345038	206.113630179914	2011.46193520195	1354.80322511867	134.665145556095	2563.60954601142	898.777432272421	149.886102621199	2049.82584737376	1048.74682335393	154.640039111242	1972.4206162257
843.297785403867	160	1439.43726847528	1391.52881527744	263.899869048056	2064.14190643504	904.392212935182	197	1622.07736689012	1456.92573121427	160.659373228634	2046.95815365171	1042.71292844025	186	1951.88327761462	1193.28735050421	149.388052406155	1835.04680149225	1019.18502483489	149	1984.38076259114	1235.31280855059	201.001327222897	1989.84461071524	835.289530026965	162.988250197392	1378.65358330855	1809.83455977858	216.078884203872	2726.1147697179	1063.40604493451	217.566005500134	1884.92068727857	1391.91657507123	146.001327222897	1938.376807911	921.752735415714	206.088281895102	2010.35390634183	1354.77580986509	134.648833414614	2563.11828488034	898.698883187642	149.881540282327	2048.81462378131	1048.62836180594	154.608109963424	1971.69594416862
842.73332654243	160	1439.76141651325	1390.39345932692	263.898663797069	2063.95872613905	903.651982892252	197	1622.23017196353	1456.36995744587	160.642781470414	2048.64483296625	1042.43239365474	186.001327222897	1951.80349960131	1193.48052033855	149.433055658507	1835.44637025882	1018.7367801271	149	1984.6212728448	1235.29195248792	201.005977475148	1990.07113860701	835.017819381474	162.995349747749	1378.13104545824	1809.68739608083	216.1239101739	2725.57139052147	1063.13748908773	217.538783314741	1884.12494194486	1391.76236622943	146.004650252251	1938.22804880985	921.513707286883	206.077579698651	2009.51272916169	1354.91609294716	134.645059952523	2563.087623482	898.723068209923	149.886102621199	2048.23378371057	1048.6067652849	154.583903026407	1971.20765374702
842.212736084682	160.001327222897	1440.41175636902	1389.31235243556	263.881696850159	2064.05510869226	902.976343264276	197	1622.72877623116	1455.92714482009	160.644515778148	2050.93879318451	1042.32937172213	186.004650252251	1952.20046888346	1193.98793690874	149.494547900182	1836.42307783201	1018.5496020657	149	1985.39859539449	1235.55754125824	201.016400054859	1990.83007299713	834.904997687479	162.998672777103	1377.96667736441	1809.79981375641	216.183312162058	2725.63411638082	1063.01209079073	217.530104449597	1883.74274140965	1391.84472601652	146.013077025505	1938.5233610858	921.376547277129	206.082207233226	2009.03050114265	1355.20234677866	134.647611008172	2563.52095661804	898.841611241315	149.898917788843	2048.14816053486	1048.66524804793	154.565207333984	1970.96883105213
841.774314390754	160.005977475148	1441.28443552459	1388.35314417319	263.844583703634	2064.27761981779	902.420828630291	197	1623.48405833433	1455.60069227376	160.66270655781	2053.49281644173	1042.42506269054	186.011749802608	1953.05899238384	1194.75683063914	149.563880111087	1837.89252716773	1018.64863688126	149	1986.70388529115	1236.07828680341	201.035529024564	1992.03946444594	834.952307918251	163	1378.21070276821	1810.16200110189	216.257284255818	2726.38038134431	1063.04582622843	217.543433566992	1883.86011569483	1392.16242330435	146.028429474207	1939.35195357665	921.334996532988	206.100130951944	2008.94850188675	1355.60215637069	134.648803841306	2564.38630968486	899.036299253058	149.917596325812	2048.57206167708	1048.78487523808	154.547721630149	1970.97894535639
841.446208518146	160.016400054859	1442.23713114912	1387.56611874484	263.786238868142	2064.44640680413	902.023792135428	197	1624.37133017535	1455.37895486199	160.69205976638	2055.89473961891	1042.7031669172	186.023779221956	1954.28357447846	1195.67346734132	149.631099281226	1839.65552390802	1019.00224572304	149	1988.43061225947	1236.77526764251	201.064502673146	1993.53227382057	835.133650632674	163	1378.84510017793	1810.69867281568	216.344250268879	2727.74243775186	1063.21725955785	217.577755302742	1884.46543646008	1392.64745046463	146.052473253798	1940.68304508189	921.372164489803	206.127515878907	2009.26032390566	1356.07224614466	134.642398651097	2565.61691113924	899.283957063754	149.938843073884	2049.4707000598	1048.94562977359	154.528501272297	1971.22430494763
841.249853529716	160.035529024564	1443.12639478489	1386.98734131318	263.709200436576	2064.3967157635	901.80869946612	197	1625.26801628184	1455.25421892347	160.726927714332	2057.75908439864	1043.1132518197	186.04072345119	1955.73227407955	1196.58784554334	149.685828299458	1841.44259818007	1019.53442707193	149	1990.41843969479	1237.53538888232	201.101880377306	1995.09652420914	835.401670547122	163	1379.78530963227	1811.28971328005	216.439442918267	2729.50745068736	1063.48042958676	217.62971000713	1885.45405328898	1393.18250301207	146.084936148072	1942.35344179825	921.464925326804	206.159271082241	2009.91875703439	1356.55807490404	134.625326953766	2567.10682650905	899.559674729352	149.95927654881	2050.7650897594	1049.12510711407	154.506867236093	1971.66952380438
841.198685847505	160.064502673146	1443.84715668466	1386.63719090604	263.619059562056	2064.02664904613	901.786656589725	197	1626.088557936	1455.22986262329	160.760722638677	2058.82086940662	1043.58718925795	186.061156926116	1957.24445609309	1197.34694124425	149.718674664364	1842.96784959376	1020.15000409413	149	1992.49492049749	1238.23613710649	201.143560600305	1996.51316663978	835.694091442613	163	1380.89992857286	1811.78712045972	216.535874877173	2731.36359928334	1063.77056740048	217.692605978582	1886.6608903039	1393.62110229813	146.123127125378	1944.10240237037	921.585810919486	206.191366446397	2010.84060739199	1356.99292214848	134.597934785894	2568.70474934481	899.834395403728	149.976220778044	2052.33261432971	1049.29216708772	154.484037407093	1972.24647098549
841.296211529815	160.101880377306	1444.35548718415	1386.52289227066	263.521846592455	2063.31647778558	901.957782943246	196.998672777103	1626.80278973397	1455.31937032592	160.787280912077	2058.98778722595	1044.05121875706	186.082403674188	1958.68461263835	1197.82666836191	149.722969942293	1843.99730678223	1020.75719271874	149	1994.52396943747	1238.76826251627	201.183485885345	1997.60520707451	835.943353936825	163	1382.03815076376	1812.05054777402	216.623906255269	2732.96900787461	1064.02236011261	217.75911579904	1887.90392005726	1393.82501677681	146.162239137273	1945.62236488075	921.706017071977	206.220080274945	2011.92412070315	1357.30348775398	134.565201771763	2570.23778758185	900.076925708275	149.988250197392	2054.02724352884	1049.40969011508	154.462792337709	1972.86751899006
841.533003579603	160.143560600305	1444.66614810737	1386.63336819635	263.421977498372	2062.32764751431	902.309695650789	196.994022524852	1627.43099276619	1455.53221952063	160.802545447401	2058.33566277077	1044.44434112474	186.101082211157	1959.95580071936	1197.95783475242	149.696646905597	1844.38565935273	1021.2882873579	149	1996.42004647716	1239.06020649742	201.214979589957	1998.2641974092	836.091071009135	162.998672777103	1383.05741565586	1811.98063577952	216.692777664041	2734.01606077984	1064.18512708279	217.821338090192	1889.01911691614	1393.69409768283	146.196301052989	1946.61767679058	921.798618655033	206.242887873503	2013.05469756669	1357.42051723141	134.535465092561	2571.51846480515	900.257891285213	149.995349747749	2055.68920714736	1049.44272272788	154.448411166122	1973.43381586182
841.881823709467	160.184813108242	1444.83856138283	1386.93925362105	263.323287875148	2061.18250154611	902.812844528158	196.983599945141	1628.01991695481	1455.85700614809	160.80496075301	2057.07032458121	1044.72007250063	186.1138973788	1960.99702098144	1197.72993045848	149.642584792237	1844.08874166744	1021.69789554207	149	1998.13136175616	1239.08298869626	201.232357096474	1998.45222678704	836.093966807653	162.994022524852	1383.8418586671	1811.53345572661	216.732702949082	2734.28143120744	1064.2276834012	217.871439573849	1889.88294955738	1393.18283195615	146.21954192883	1946.85192649147	921.841001723708	206.257457979105	2014.11410816138	1357.29128474029	134.517022616918	2572.35848802964	900.351613114622	149.998672777103	2057.1596954843	1049.36694040837	154.444115888193	1973.8475151839
842.296229211637	160.219629842208	1444.940852659	1387.39094711792	263.22499034723	2060.02340435965	903.419541421959	196.963143752539	1628.61011088166	1456.24403710786	160.792358929015	2055.44079282703	1044.85089246087	186.117132494776	1961.77911353808	1197.1821909231	149.566067551333	1843.16536844183	1021.96161393718	149	1999.63015155222	1238.84752753572	201.231029873577	1998.20212557961	835.934794825296	162.983599945141	1384.32129844024	1810.73730809138	216.73700546792	2733.66057271013	1064.14784362171	217.903388518372	1890.42807634388	1392.31606294635	146.227794757601	1946.18797888892	921.820004415644	206.262020317978	2014.989203694	1356.8932983394	134.516476404716	2572.58678434612	900.345427139797	150	2058.29818169192	1049.18028902673	154.453300954467	1974.02754511407
842.710463232738	160.244106899082	1445.00791440607	1387.91563832374	263.125647181409	2058.96065792627	904.061040748004	196.929519851706	1629.20011634896	1456.59421924374	160.765953491537	2053.64445853397	1044.81836295085	186.10924712655	1962.28288038685	1196.3743977885	149.475498961751	1841.73749354276	1022.06435321952	149	2000.88896177738	1238.38616282088	201.210329337706	1997.58754046983	835.621387081159	162.963143752539	1384.47367965473	1809.67980581015	216.7037293005	2732.18473304476	1063.96779063909	217.911792573951	1890.64549589249	1391.17705197758	146.21954192883	1944.62030728244	921.735783061479	206.255703041147	2015.58791330992	1356.24597869407	134.534400123434	2572.07526337914	900.245872995693	150	2059.00395546571	1048.90984579949	154.475874925436	1973.92218406836
843.045758474535	160.25613631843	1445.02229788508	1388.42070823022	263.02165383291	2058.04270573277	904.654218209198	196.880392344938	1629.73460470021	1456.77127473897	160.725771514948	2051.77463266343	1044.60875104532	186.088005185652	1962.47489252012	1195.36297955272	149.379613215047	1839.93813086955	1021.993509408	149	2001.86485669557	1237.73435947939	201.17040885984	1996.68446817101	835.178668620888	162.930847074603	1384.31770976428	1808.47844313081	216.634943767279	2730.00235913709	1063.72243082208	217.892663604245	1890.57144723342	1389.88431460685	146.196301052989	1942.27647550096	921.600086119149	206.238758811913	2015.8454660238	1355.4095927788	134.565631574276	2570.76428567397	900.076912303797	149.998672777103	2059.22729277491	1048.60787321477	154.509124900411	1973.51614597622
843.224793071478	160.255703041147	1444.9043651982	1388.80727309552	262.90908637678	2057.23350670807	905.11282074121	196.814932899984	1630.10311641876	1456.63874082416	160.672693960354	2049.79839949873	1044.20999170511	186.052646977085	1962.31115247656	1194.18542715881	149.286149311173	1837.88462174424	1021.73635384081	149	2002.5121073621	1236.91610566718	201.113803903201	1995.55626384894	834.639026174694	162.886369820086	1383.90045564415	1807.24732785664	216.538179551727	2727.34437722809	1063.44855839725	217.844863320374	1890.27208922612	1388.55937973036	146.162239137273	1939.39059176367	921.430959145272	206.211285971573	2015.74169648993	1354.47048420111	134.600476804552	2568.70035145237	899.872527452585	149.994022524852	2058.98592270599	1048.33756677614	154.548951902678	1972.84581066067
843.186307305698	160.244642811461	1444.53696879658	1388.98218570503	262.782364064364	2056.42816277214	905.359579800023	196.732956940856	1630.16545463884	1456.09553007281	160.608636982345	2047.60412008844	1043.61491005298	186.002706197171	1961.72863400652	1192.86175448097	149.20201132925	1835.6415259017	1021.28545996881	148.998672777103	2002.77516355319	1235.94349841978	201.043429648361	1994.22602395635	834.029186972331	162.831332954842	1383.27757023372	1806.06331901375	216.421715640511	2724.46491831113	1063.16780352507	217.768231973646	1889.81341978379	1387.2934675662	146.123127125378	1936.24815317951	921.24532995774	206.17372708202	2015.29566425849	1353.52506157972	134.626537983387	2566.04469137372	899.667695837649	149.982272722244	2058.35494390587	1048.15998519159	154.588631222479	1971.99836416265
842.904434888398	160.225964274493	1443.8072381591	1388.88184270014	262.634873009355	2055.49201733823	905.344818321326	196.635656057877	1629.79027904816	1455.12294505583	160.535901069618	2045.07970332474	1042.8211481222	185.936732802465	1960.67411109281	1191.40593636075	149.13163707441	1833.2370715943	1020.63811303846	148.994022524852	2002.60907223852	1234.81953698615	200.960512024421	1992.69234354924	833.36549556984	162.771140411214	1382.5006655695	1804.94960023412	216.295788842362	2721.58922781027	1062.87922857435	217.665822539593	1889.24169248873	1386.12655003506	146.084936148072	1933.12111296988	921.046107664051	206.124078384591	2014.56142494087	1352.65067152749	134.632947960822	2563.05785886107	899.481638482845	149.958493500288	2057.45353855887	1048.1129853117	154.620930959328	1971.10228223291
842.393136748015	160.201635365566	1442.65171977656	1388.48207845036	262.458369647574	2054.31158500346	905.051853937816	196.524125074564	1628.89207632504	1453.79369444178	160.458121455235	2042.19229446638	1041.84485734666	185.853168121718	1959.1118622109	1189.85367718527	149.077579698651	1830.67575486245	1019.80649329738	148.982272722244	2001.97400457638	1233.55837025647	200.864917924327	1990.93374854433	832.65575263841	162.710786458422	1381.60761823658	1803.88341065935	216.166012599364	2718.86217757596	1062.56113771829	217.540175358184	1888.56525351207	1385.05280886371	146.051146030901	1930.20042975944	920.820171664672	206.058698921285	2013.60069566304	1351.8905559444	134.612921570733	2560.03578112914	899.312808834059	149.917770049098	2056.40385736091	1048.20189302421	154.638022453365	1970.29152749388
841.704882469796	160.172422576799	1441.08529082712	1387.79942838338	262.242594591242	2052.82827956963	904.500028632927	196.397936418555	1627.45917080085	1452.25801162057	160.379613215047	2039.03442898897	1040.72163191542	185.748226213781	1957.07057834058	1188.27512473434	149.038852053918	1827.99971341829	1018.82277766	148.958493500288	2000.87605774768	1232.19698927308	200.752876466032	1988.95820302757	831.905403009426	162.655482532234	1380.62637165261	1802.81757665561	216.033418753145	2716.34748670075	1062.17970779382	217.391958943407	1887.76575432644	1384.03939319408	146.022451999059	1927.57959467209	920.539664398653	205.97162227717	2012.47188565106	1351.2449263317	134.565269385183	2557.24431679488	899.139275774702	149.856613122982	2055.3053157398	1048.39441755561	154.634857891728	1969.66918094113
840.919073780225	160.136261464482	1439.21234378496	1386.88591678523	261.973014320613	2051.06549059537	903.740643962599	196.25604284283	1625.56691155513	1450.71180270326	160.30352681769	2035.83132671728	1039.50874070087	185.617478347384	1954.64756824789	1186.77715043694	149.013077025505	1825.3095922465	1017.74617607597	148.917770049098	1999.37710927451	1230.79956192577	200.618805570281	1986.81634301182	831.124748231255	162.608109963424	1379.58567851522	1801.71549593247	215.893891572908	2714.05079274402	1061.70697066954	217.220938058558	1886.81991623681	1383.06183974307	145.996676970646	1925.27371542376	920.167668089816	205.853175628666	2011.21311210116	1350.67588160978	134.493399962794	2554.85106336551	898.924961826487	149.774209448794	2054.20617498766	1048.62466491362	154.605970118697	1969.26888784929
840.120204878175	160.088790933947	1437.20588567674	1385.80845336228	261.63493316067	2049.11669700939	902.842188016941	196.094842878148	1623.36790310776	1449.33799169798	160.232177810965	2032.89074103858	1038.28613411152	185.456037514203	1952.02216501105	1185.49582918972	148.992900449643	1822.7903548999	1016.66620876989	148.856613122982	1997.62080222591	1229.45982765945	200.454710291307	1984.62610967812	830.340055414382	162.568459605414	1378.53216848307	1800.58794817836	215.73780363407	2711.98358321564	1061.13918805338	217.023169896721	1885.73560214873	1382.14038123004	145.96779400479	1923.28218272356	919.675955705994	205.693381189842	2009.84967021414	1350.13736407596	134.405241116599	2552.91465106658	898.639657032391	149.673127237637	2053.11339604337	1048.81656557913	154.549217063737	1969.05272767133
839.37951636485	160.024829735403	1435.2695371972	1384.62907118671	261.212846363649	2047.11777130921	901.87506288255	195.910037635993	1621.05971484327	1448.26191444186	160.165584884303	2030.52371040881	1037.14248734611	185.259111880409	1949.42210876002	1184.56656635546	148.971570525793	1820.68051024964	1015.68932106644	148.774209448794	1995.80823058154	1228.2823505052	200.254461628159	1982.55330718373	829.587351127331	162.532093548995	1377.53152266683	1799.49583587468	215.554302897135	2710.19953080865	1060.49788969887	216.792532652301	1884.565330569	1381.34138588149	145.930847074603	1921.63641400439	919.051213960006	205.480929162863	2008.40118089703	1349.59189494959	134.309145484607	2551.40332949364	898.265963288074	149.55790263594	2052.00928201228	1048.90221406842	154.463945600106	1968.93209263016
838.738076316706	159.940344020067	1433.59382112304	1383.38727074371	260.696082476107	2045.21347547942	900.89685743851	195.69708018288	1618.84768566954	1447.51915125544	160.101532643894	2028.96195061471	1036.16472697738	185.025689952751	1947.08905895611	1184.09681033899	148.941549271054	1819.22660182456	1014.92012709343	148.67180001474	1994.16582104609	1227.3645692704	200.013940150143	1980.78471644794	828.916286081871	162.492095457573	1376.66668910082	1798.5537716571	215.333700944295	2708.81390784498	1059.83460596023	216.523762885472	1883.40586792217	1380.77972548405	145.880392344938	1920.42981125551	918.307525941111	205.209702857017	2006.89424461801	1349.0422552817	134.215162823808	2550.24348350908	897.814741082187	149.436119888913	2050.87860355277	1048.8474753095	154.352562715114	1968.80483673447
838.204753505638	159.83536637491	1432.31580922665	1382.09818652171	260.079444756881	2043.52193008294	899.942087700424	195.451893463082	1616.9045999043	1447.05525276787	160.036050481263	2028.29083626109	1035.41820915326	184.756482171038	1945.22165014277	1184.13576555681	148.897336574172	1818.61141544471	1014.43646161964	148.553252383689	1992.88633155262	1226.77386510941	199.731375726185	1979.47785767189	828.3737219821	162.440949426672	1376.03208679972	1797.88843291935	215.071504799561	2708.00245430809	1059.20870888968	216.212504429672	1882.39041197737	1380.57440114197	145.814932899984	1919.81941385094	917.483609470835	204.876530748273	2005.37325993884	1348.53130352335	134.128982628616	2549.37251496179	897.321732522656	149.313795736858	2049.73435053254	1048.66056689587	154.219536366608	1968.59591739014
837.766901435968	159.71252346593	1431.49926416641	1380.76477104738	259.366515934427	2042.1159393481	899.029884606391	195.173473090245	1615.34558353723	1446.76502728569	159.963143752539	2028.43175382436	1034.93728182069	184.455239210112	1943.9440108761	1184.65805547005	148.83536637491	1818.90115582357	1014.27237115716	148.423042863408	1992.09848316931	1226.52960091655	199.409865506671	1978.7253543484	827.997173856309	162.370904925168	1375.70386702577	1797.60812648524	214.767970115785	2707.927128944	1058.67773431629	215.858350130491	1881.64114886389	1380.81540317061	145.734284163753	1919.95979889557	916.637640375805	204.487168495872	2003.90900772348	1348.13504585639	134.053800476695	2548.78216205202	896.840879673719	149.196033854103	2048.63566402455	1048.38943861595	154.07065387158	1968.28811897337
837.401704131228	159.577031605645	1431.13915842138	1379.39026668929	258.568143793045	2041.02527434235	898.168205952998	194.863992290079	1614.22619318257	1446.53605269283	159.877069315584	2029.18531155085	1034.72236301261	184.127026155682	1943.28864620456	1185.56976601267	148.754203688928	1820.01883813817	1014.41967668079	148.285366262651	1991.85524580213	1226.60284388803	199.054119426958	1978.5321790066	827.802134024869	162.278166381062	1375.72408285574	1797.75795323167	214.429342209789	2708.68896163645	1058.27845903198	215.46392288243	1881.24736429556	1381.52623130181	145.641633533025	1920.95650488716	915.834266652066	204.054119426958	2002.58850904121	1347.93523487483	133.987706023017	2548.51946965125	896.429823701616	149.084936148072	2047.67582730887	1048.10109134354	153.911618850664	1967.92016487818
837.097301298374	159.434792666016	1431.17801488119	1377.99970898423	257.700742238922	2040.24395158624	897.369587628231	194.528145938836	1613.54919410204	1446.30581473236	159.774209448794	2030.29648534705	1034.74420363797	183.778788943121	1943.21142524693	1186.73123588052	148.655661817743	1821.76219375966	1014.83556628667	148.143560600305	1992.15457584248	1226.92485259872	198.671278824079	1978.82384925717	827.776691904418	162.162956768896	1376.08472542163	1798.30513798595	214.063349173536	2710.27165498344	1058.02011916507	215.034919699329	1881.23868501722	1382.64783675141	145.54185235232	1922.80432929669	915.130504165546	203.592648611982	2001.50866458146	1347.9928641861	133.928140877433	2548.6802985164	896.135154417797	148.979566525074	2046.96916541751	1047.86299166712	153.748052490494	1967.58181267177
836.860787713878	159.290016514902	1431.53140991779	1376.64602906762	256.783490946748	2039.74514255334	896.657529430219	194.172399859123	1613.27474543683	1446.08735671305	159.652671045035	2031.53608675369	1034.95610710814	183.41594331305	1943.61287099943	1187.99288380678	148.541590494459	1823.85213149538	1015.4581951265	148	1992.95376091878	1227.40759157587	198.268160175556	1979.47243956722	827.881884259768	162.028318068158	1376.71652470428	1799.14032034189	213.67810825458	2712.50075756022	1057.88257075383	214.579304525533	1881.56117264674	1384.04350167475	145.439442918267	1925.34691265227	914.560204917527	203.118354901218	2000.75033822049	1348.32349955696	133.869773324264	2549.36539040917	895.977724893482	148.875545651725	2046.617079759	1047.7201934519	153.583009080793	1967.38390566906
836.715448545902	159.143560600305	1432.1126128493	1375.40025409398	255.832729084571	2039.49734727049	896.062858420671	193.802568165077	1613.3371628778	1445.95921508233	159.513856155396	2032.75846789799	1035.29642998791	183.043150031621	1944.37325995379	1189.22253696161	148.415575782932	1826.00401991805	1016.21558414957	147.856439399695	1994.18821202991	1227.95754219228	197.851695671845	1980.33374542933	828.058295725367	161.879863288191	1377.50153334472	1800.09890150767	213.278061564607	2715.06858466554	1057.82132735581	214.104072624726	1882.09209468799	1385.52550189214	145.339600016629	1928.28517260167	914.127136841166	202.642855939466	2000.36295856843	1348.8873923156	133.80933138852	2550.64212431424	895.949003988105	148.767280714434	2046.6838006979	1047.68673961285	153.416990919207	1967.43607132154
836.690459266686	158.995349747749	1432.83961846761	1374.33139126825	254.859743422502	2039.46551687806	895.61348889327	193.421715640511	1613.64876022595	1446.02394944904	159.360558714395	2033.90951058101	1035.70296132476	182.662758309187	1945.37223931704	1190.33160813863	148.279909978164	1827.98393032497	1017.03729227414	147.713306514452	1995.78148869903	1228.49773182746	197.426365892762	1981.28060462691	828.241222358165	161.721919428847	1378.29283894482	1801.00519592836	212.862136010435	2717.57418931656	1057.78016106176	213.613082086908	1882.65513792508	1386.89655107904	145.244207230313	1931.2134195379	913.803597881533	202.170141660954	2000.34190554118	1349.59429011623	133.745248218066	2552.4876331985	896.013502978947	148.648562267385	2047.1665671343	1047.74630335197	153.250620286609	1967.81121373254
836.799327808248	158.844689597087	1433.63641107349	1373.47765466942	253.867908337896	2039.60555650464	895.319104125193	193.031400229013	1614.10444467874	1446.35239962908	159.196985113315	2035.00054904855	1036.11295287595	182.273504787956	1946.49589202713	1191.27433435109	148.135828187199	1829.64182185306	1017.85622931769	147.570979661445	1997.63480110274	1228.96751304111	196.992695301956	1982.21383220105	828.369162918115	161.557469358657	1378.93943085467	1801.70101363807	212.424691957538	2719.59954733453	1057.6986674086	213.107919903653	1883.05422957159	1387.98688702905	145.154882687852	1933.69408413746	913.536518039743	201.696900897372	2000.61964084229	1350.31584499769	133.677794645342	2554.75426742077	896.115491800584	148.514488243149	2047.98561446802	1047.85464842961	153.082403674188	1968.51328295466
837.030715097954	158.689527292496	1434.43115588738	1372.82987287946	252.848403404506	2039.86114469504	895.162992901199	192.62855650752	1614.59521417623	1446.94544693586	159.024751111392	2036.06826065552	1036.46901662676	181.870112350952	1947.65189290098	1192.0421065295	147.982272722244	1830.9342190259	1018.61717338252	147.429020338555	1999.64938947113	1229.32485834227	196.547274908541	1983.07833466915	828.3931809051	161.388296887365	1379.32283134468	1802.0763568667	211.956106253381	2720.81232753012	1057.52557511803	212.586078118372	1883.12954759661	1388.68964316224	145.070109697205	1935.36289000261	913.259545561673	201.213564453682	2001.07217886151	1350.91313014856	133.606244394412	2557.17559111278	896.192411160409	148.361775306237	2048.99037910903	1047.95290550979	152.910291627767	1969.46842838682
837.337905723507	158.530256210255	1435.14401053742	1372.31672978215	251.784097172322	2040.14716908802	895.095911795618	192.20900211481	1615.00636962509	1447.70890854534	158.844596121488	2037.11750914725	1036.72053416037	181.445244345461	1948.75433902811	1192.64326030329	147.815360615045	1831.89670524346	1019.27759373442	147.285366262651	2001.71528009112	1229.53734460603	196.08309307554	1983.84274839131	828.282403979644	161.21261319447	1379.37441525645	1802.08632740783	211.446445044682	2721.03788141998	1057.22574191692	212.043417230507	1882.79032012721	1388.97746741425	144.987970580652	1936.01125539399	912.908133025311	200.706813189669	2001.53829627586	1351.26535333076	133.531338730745	2559.40383291513	896.188304861337	148.190323577841	2049.98360131488	1047.98087097587	152.732979658532	1970.53023749113
837.644824635176	158.367863412439	1435.69107330075	1371.81719863212	250.649393967623	2040.35453176952	895.041955242691	191.766904750749	1615.23456558771	1448.47406445228	158.655749731121	2038.10463877819	1036.82703000461	180.989095563151	1949.71684102698	1193.08756782527	147.63055537289	1832.60906663631	1019.80796478021	147.137583125157	2003.71454086015	1229.5758072484	195.589048873178	1984.48028915538	828.020513899111	161.030166481715	1379.08526053915	1801.74391941148	210.886953327984	2720.30027304389	1056.78031619221	211.474345462141	1882.03261231349	1388.89757596272	144.905846523204	1935.6403313554	912.42790986363	200.162828207393	2001.84583738337	1351.29298873876	133.450933991499	2561.08384992967	896.060268754332	148.000951259213	2050.75869919047	1047.88993053895	152.546152833331	1971.51301139284
837.863028685707	158.202962588463	1435.99012136945	1371.18346418832	249.416768423694	2040.36061651001	894.914718624945	191.295706270009	1615.1926043181	1449.03723368976	158.456022258634	2038.93094293735	1036.75654607204	180.49330835345	1950.45370254314	1193.37413177786	147.423310062294	1833.16009186272	1020.18445659354	146.982272722244	2005.52573198365	1229.40771549877	195.054293150245	1984.95741938727	827.603115895066	160.83871212194	1378.49901663012	1801.10230242415	210.274205530163	2718.80749537521	1056.18416258635	210.874959044166	1880.93649791392	1388.54588364853	144.820033584971	1934.45492000503	911.783004475343	199.569310312199	2001.83894242557	1350.97305127414	133.362671685587	2561.92737653067	895.78426964704	147.794927140118	2051.13305624203	1047.65303557747	152.346510770914	1972.23053033091
837.907384068559	158.036500914	1435.96408621775	1370.26896428577	248.061201629489	2040.03463710317	894.628679341382	190.787882400051	1614.81070086338	1449.20652059064	158.244106899082	2039.4504531573	1036.48611598283	179.951368087752	1950.86964065316	1193.48751401244	147.189785231726	1833.60134433465	1020.38731415367	146.813605677087	2007.01802085673	1228.99925038586	194.469441218116	1985.21329445941	827.034427839007	160.635656057877	1377.69317102303	1800.23108416113	209.607915985022	2716.88567150967	1055.43903378899	210.240681960562	1879.63297446271	1388.03577715258	144.728568546467	1932.79955615855	910.961377431151	198.918895031598	2001.40675414508	1350.34709574814	133.263754625712	2561.78644073587	895.360299138626	147.573685858615	2050.98527437352	1047.27651649016	152.131012631547	1972.54659126951
837.720725763563	157.868375343444	1435.55770902304	1368.96821187417	246.567701335464	2039.26772630826	894.123688398052	190.238149486678	1614.04535894114	1448.86143377194	158.019743902004	2039.51291598227	1036.00073221767	179.359927426531	1950.87429994569	1193.39976777734	146.929257993845	1833.93605034731	1020.39731874093	146.6264263113	2008.07235744598	1228.31745755795	193.82754582723	1985.16941553648	826.324539995431	160.419697116378	1376.75409570768	1799.19480990206	208.892738073298	2714.88710505501	1054.55138106008	209.569043113313	1878.26509349114	1387.46512382508	144.629971643795	1931.06111286349	909.967319951238	198.208392789574	2000.5019293451	1349.4947048728	133.152088356106	2560.68013555076	894.80197032837	147.338106715335	2050.2745570866	1046.78756295627	151.898663797069	1972.40058933911
837.286198682554	157.69647318231	1434.74542529081	1367.23938772205	244.93536830694	2037.98775588709	893.376220664025	189.642758515524	1612.87961701814	1447.98314798916	157.783439195371	2038.9966948295	1035.29918255441	178.719625923577	1950.37897518842	1193.08489377217	146.643912015134	1834.09986253526	1020.20507409711	146.415842981819	2008.58961620237	1227.34214951087	193.126422392669	1984.72474357974	825.488100527341	160.188680311971	1375.74802516124	1798.03801735087	208.134674687589	2713.08469881118	1053.53041591695	208.857992097256	1876.93854927647	1386.8967159667	144.522635469237	1929.55712077661	908.823909926425	197.440218129527	1999.13804694377	1348.52254025601	133.027362209287	2558.77740454991	894.137796231592	147.089332408549	2049.03217415322	1046.23272203316	151.650553266668	1971.81153256571
836.63071174835	157.51717918475	1433.53206334356	1365.11251000205	243.180213358799	2036.16533854547	892.402283906805	189.000583507898	1611.32038430164	1446.66373820673	157.537629815131	2037.84755614618	1034.39639470417	178.03412153318	1949.32007542689	1192.53427903796	146.338106715335	1833.99241725315	1019.81979637581	146.178123342496	2008.52493909808	1226.07811645218	192.368359006959	1983.78711314224	824.543923362077	159.942876493951	1374.7050955971	1796.77963288172	207.340812912506	2711.61375008089	1052.38771575519	208.106338688982	1875.69950408972	1386.34958228483	144.40688438247	1928.46620416063	907.56472896678	196.620993010527	1997.38516244131	1347.53205633267	132.891735062709	2556.36063219429	893.400309999941	146.82843764055	2047.35448004392	1045.65883860967	151.391013246416	1970.87139582604
835.816463512137	157.32651057327	1431.95596930937	1362.67990649035	241.333613030917	2033.82190011538	891.250530443229	188.315712029875	1609.39040285584	1445.08322183875	157.285366262651	2036.10593257843	1033.32232682288	177.311839263924	1947.64967934985	1191.77027740989	146.020433474926	1833.49212944982	1019.26814995857	145.913119796848	2007.87075108373	1224.5605067949	191.560442754714	1982.2815776166	823.513225840798	159.683549817348	1373.60958648313	1795.41878388891	206.517723359125	2710.43977541663	1051.13744262645	207.314384806978	1874.51391122331	1385.80673042242	144.284044601976	1927.78948722192	906.225810172761	195.759805200392	1995.34410739463	1346.60017205907	132.749898470316	2553.74961210413	892.61941025155	146.55790263594	2045.36456283219	1045.10306021182	151.124861433113	1969.71091048208
834.92341263698	157.120826113161	1430.07806335116	1360.07069260692	239.440770141163	2031.0225403936	889.983498794534	187.595570256662	1607.1197121541	1443.46030717366	157.028973648582	2033.9094791492	1032.12100054621	176.564424285462	1945.34829628656	1190.85385829716	145.70008426197	1832.49875695413	1018.59323261323	145.623906255269	2006.65724094804	1222.85892204516	190.712959047078	1980.17693411554	822.420112463211	159.414342035635	1372.40723213364	1793.94743015002	205.67180001474	2709.38387935945	1049.7960136368	206.485164823328	1873.27741573684	1385.23055491719	144.15462082999	1927.36510861625	904.842028493027	194.86836292559	1993.11846434581	1345.76992102033	132.607140773762	2551.23119888943	891.818241009076	146.280809486	2043.18287354336	1044.58573042363	150.857761060371	1968.46283563865
834.027604771055	156.898663797069	1427.95840834214	1357.41753574936	237.552489590283	2027.84637978771	888.656368822789	186.851766429769	1604.51997067582	1441.99254446967	156.769813188318	2031.45114569323	1030.84114043068	175.804764312047	1942.41951726788	1189.87758027511	145.386795941182	1830.96264891314	1017.84422259154	145.316859967263	2004.92913748433	1221.06763956136	189.840467059898	1977.4956853702	821.290460092007	159.139003823654	1371.02474342451	1792.36260455133	204.811065696255	2708.18204182534	1048.38117973682	205.623455822532	1871.84225136946	1384.58191905599	144.020433474926	1926.92426654045	903.436451119087	193.95927654881	1990.79246788101	1345.04280283328	132.467784479095	2549.00442059997	891.00532254694	146	2040.9023912018	1044.10349796501	150.593543332591	1967.23060407041
833.180124345864	156.660739785054	1425.63852482812	1354.82465444175	235.718704430044	2024.36653272187	887.302165989034	186.100130951944	1601.57928748549	1440.80882220205	156.509822735328	2028.92941412305	1029.53159713378	175.048606050069	1938.89457866313	1188.95078218689	145.089329501259	1828.9064318185	1017.0694716035	145	2002.73712842672	1219.29169435363	188.958319777001	1974.31980861372	820.153216438267	158.862323399243	1369.39033233111	1790.68237981009	203.944820549031	2706.56122965183	1046.91629883321	204.739480628206	1870.05395388117	1383.84657448124	143.883570147316	1926.16919731636	902.024043779591	193.046700926338	1988.40835673656	1344.38975467883	132.335037677756	2547.13187318568	890.180049146077	145.720517736897	2038.56225373151	1043.63333357736	150.335037677756	1966.05001240989
832.401115469501	156.41101344406	1423.12615907214	1352.35349865669	233.980900795974	2020.62508359569	885.925054985548	185.356629459467	1598.2598615587	1439.94572936662	156.249386539312	2026.4896343703	1028.23403555559	174.311872588209	1934.84279997999	1188.17625027407	144.81344988425	1826.44356574462	1016.31430628597	144.683140032737	2000.14837706563	1217.63000001679	188.082229950902	1970.79279316232	819.035275270003	158.590308216616	1367.46421678465	1788.94670565316	203.08486167902	2704.33601992394	1045.42795907885	203.84537917001	1867.80504119019	1383.04240470765	143.746663354341	1924.87537979828	900.610037000992	192.144714099915	1985.9619325133	1343.7629393365	132.207612840713	2545.54096293243	889.332579624133	145.446747616311	2036.14934014663	1043.13530127818	150.083181210114	1964.88036060895
831.677262888821	156.155162304591	1420.39510534152	1350.01590367108	232.366491486169	2016.62888814103	884.505229841518	184.637957494876	1594.51137658018	1439.35078414874	155.989297803549	2024.18876853283	1026.97976532128	173.607861771085	1930.37280360427	1187.62379056388	144.561705019122	1823.76031324997	1015.61735792729	144.376093744731	1997.25437317871	1216.1536244001	187.227900822625	1967.10175250523	817.966180972807	158.326872762363	1365.24503446789	1787.2315883165	202.244845051859	2701.45205897241	1043.95309152945	202.957368517789	1865.05355270657	1382.23463539145	143.613030335531	1922.94840266529	899.199939005282	191.268624273815	1983.41462394963	1343.12180811437	132.083730897085	2544.06143139749	888.457125837158	145.184639384955	2033.61330273896	1042.57144928654	149.837760862727	1963.62040271325
830.97065864973	155.898917788843	1417.39829245941	1347.7833560404	230.886325116713	2012.35660627829	883.008967091948	183.958163984164	1590.28947644203	1438.90827063125	155.732547156245	2021.98893922522	1025.78689553924	172.947461787713	1925.62930002166	1187.31914709798	144.332850237511	1821.08554031178	1015.00735961948	144.088207426049	1994.17003226808	1214.89784680431	186.407701021315	1963.45269730535	816.971289589524	158.076252475754	1362.77993856625	1785.62314133313	201.438859410368	2698.02388688143	1042.53030648421	202.090739899933	1861.8480085495	1381.51289128865	143.48524989899	1920.47134182864	897.803547842983	190.431480243271	1980.70499164294	1342.45366280268	131.95927654881	2542.48099327355	887.558804083184	144.939097065658	2030.88598591977	1041.92185126695	149.597390611519	1962.13859598158
830.231886142583	155.64853664242	1414.09514492709	1345.60220195279	229.537000355291	2007.78848492254	881.400252344425	183.325747779864	1585.58011489322	1438.47087161911	155.48282081525	2019.77914963984	1024.65790293005	172.337777199212	1920.78192297996	1187.23289061589	144.125237396797	1818.6439472025	1014.49340570807	143.826526909755	1991.02121530005	1213.85374684012	185.632968215938	1960.03665827989	816.071895742979	157.841620559508	1360.15458097202	1784.20554647663	200.679463994588	2694.30248705464	1041.19393311405	201.259940601497	1858.30998087208	1380.96928774274	143.366793240229	1917.68050265461	896.442230697627	189.644718018546	1977.77967368271	1341.78994267852	131.832660177739	2540.62112902351	886.662296120983	144.714366538463	2027.91817893496	1041.19944334117	149.361811468239	1960.32676178066
829.417081180711	155.409369912151	1410.47710963396	1343.41720895206	228.305437476624	2002.9351063988	879.656156301636	182.744473006806	1580.41683908043	1437.9003875864	155.244469088175	2017.41843970234	1023.58545656765	171.780546205745	1916.00959013945	1187.29448328094	143.935323603567	1816.61067691257	1014.06500800481	143.59590682079	1987.93062593132	1212.97923825662	184.91141130645	1957.00364564407	815.286927055879	157.622330840033	1357.47059026613	1783.04526951023	199.97589126192	2690.59543831998	1039.97214727867	200.47702016305	1854.59874150273	1380.67440999923	143.258616285889	1914.88686452279	895.148184918516	188.916061558701	1974.62374972165	1341.19997580609	131.702883934741	2538.40786692551	885.809033296797	144.511250289457	2024.71686240218	1040.45414640706	149.132166131157	1958.15042465021
828.501888453422	155.184639384955	1406.59592724343	1341.18901886157	227.173800402214	1997.86782156745	877.775932628526	182.213444822846	1574.89885097441	1437.10038897109	155.022827962743	2014.7958487248	1022.5542261695	171.273274526066	1911.48232725804	1187.40586393042	143.761334663686	1815.07384910957	1013.69563481944	143.398680133553	1985.00145280237	1212.20969954224	184.247994357926	1954.43736057109	814.630387090338	157.417773967729	1354.83888383844	1782.16955873173	199.331725255011	2687.20386294571	1038.87900525322	199.748716174219	1850.89130365829	1380.651196741	143.16128787806	1912.40390388949	893.964628650403	188.249321580823	1971.28285438488	1340.77642297897	131.572306884342	2535.90227920948	885.052703359991	144.32819998526	2021.36218143161	1039.76412195399	148.910667591451	1955.67264542035
827.494353493487	154.977801992715	1402.57921612654	1338.91738460143	226.127099475876	1992.73769479722	875.79160394851	181.727648711655	1569.20026995528	1436.04823106418	154.821426224767	2011.88902910312	1021.55867754351	170.810052385843	1907.35706344422	1187.47710302758	143.602063581445	1814.03501289897	1013.36193333381	143.231768026354	1982.33067217135	1211.48660702105	183.646045241443	1952.35925578431	814.116075695031	157.226319607954	1352.35657128475	1781.5763671837	198.745800229702	2684.3361716396	1037.92456520063	199.079627918871	1847.34551021798	1380.87857053446	143.072906728724	1910.45543285466	892.938252065647	187.644718018546	1967.87682084743	1340.60794312713	131.445420393414	2533.30349502566	884.448044453573	144.16128787806	2018.01477461605	1039.21565001612	148.702616735854	1953.05725689282
826.442242176425	154.79099788519	1398.6416357929	1336.6502472876	225.156073124458	1987.78611876146	873.77173532605	181.280989008722	1563.57476223904	1434.81231157015	154.642874946013	2008.82407920214	1020.61286198339	170.383398442775	1903.76857423594	1187.45269980749	143.458497418919	1813.42470535249	1013.0616375648	143.09063400648	1980.01028413017	1210.77562892884	183.104197696297	1950.73777472217	813.75552870767	157.046700926337	1350.10312958932	1781.23340891774	198.213444822846	2682.08175266377	1037.11373813324	198.470729078665	1844.09160458609	1381.29459386535	142.991595944422	1909.13898329104	892.113126819017	187.099547444046	1964.58375457983	1340.75162071979	131.32819998526	2530.89723632968	884.039223632089	144.005977475148	2014.88874622427	1038.87845289707	148.512577512354	1950.53044808648
