Light	Light	Light	Light	Light	Light	Light	Light	Light	Light	Light	Light	Light	Light	Light	Light	Light	Light	Light	Light	Light	Light	Light	Light	Light	Light	Light	Light	Light	Light	Light	Light	Light	Light	Light	Light	Light	Light	Light	Light	Light	Light	Light	Light	Light	Light	Light	Light
Optode1-730nm	Optode1-Ambient	Optode1-850nm	Optode2-730nm	Optode2-Ambient	Optode2-850nm	Optode3-730nm	Optode3-Ambient	Optode3-850nm	Optode4-730nm	Optode4-Ambient	Optode4-850nm	Optode5-730nm	Optode5-Ambient	Optode5-850nm	Optode6-730nm	Optode6-Ambient	Optode6-850nm	Optode7-730nm	Optode7-Ambient	Optode7-850nm	Optode8-730nm	Optode8-Ambient	Optode8-850nm	Optode9-730nm	Optode9-Ambient	Optode9-850nm	Optode10-730nm	Optode10-Ambient	Optode10-850nm	Optode11-730nm	Optode11-Ambient	Optode11-850nm	Optode12-730nm	Optode12-Ambient	Optode12-850nm	Optode13-730nm	Optode13-Ambient	Optode13-850nm	Optode14-730nm	Optode14-Ambient	Optode14-850nm	Optode15-730nm	Optode15-Ambient	Optode15-850nm	Optode16-730nm	Optode16-Ambient	Optode16-850nm
410.265884752359	142.938843073884	774.595232826612	1316.39074420888	182.33836070711	2002.76430036928	1541.35439313258	143	2624.34567979122	1847.62219898513	159.592055593519	2893.02578941448	1347.322119735	132.065807178367	2598.1949077781	1293.43999673403	148.233505033862	1997.71842351238	721.888248406815	130	1273.65281018601	914.734648394185	145.857940345879	1180.99356442191	925.277210205606	143.685962689221	1662.56826783063	638.544607073434	160.162239137273	762.667122266464	1106.60398797776	155.75474516353	1757.56877663227	590.849474558345	148	678.166030706311	1200.8877375816	144.994022524852	2249.15139551678	1319.11451534648	136.994022524852	2277.13687075519	963.033971634245	143	1995.24646579689	1088.43163690557	147.995349747749	1701.0648552696
410.463749159143	142.917596325812	776.194576752461	1317.42779255522	182.445332480036	2008.74792402893	1541.79262993255	143	2629.13381061733	1848.13561312984	159.650675238578	2898.5960688539	1348.3440642391	132.042050674087	2603.41232088178	1294.16749467027	148.286149311173	2001.32320213301	722.568789728522	130	1277.26248168991	915.268558178122	145.917770049098	1183.93703145633	926.005131598626	143.714807460636	1666.20909538967	638.991957149178	160.196301052989	764.590097445991	1107.77986806634	155.794235838882	1761.81180743751	591.190456608161	148	679.345830202306	1201.69212477366	144.983599945141	2253.30798032965	1319.4225549408	136.983599945141	2279.88414927672	963.137061668458	143	1997.35452395871	1088.71410091899	147.988250197392	1703.18304519977
410.651366539814	142.898917788843	777.731037391169	1318.32554725132	182.554667519964	2014.39185077677	1542.18704446293	143	2633.68971000142	1848.55776972743	159.693560712563	2903.89133752973	1349.28680836417	132.023779221956	2608.63224283588	1294.80876738376	148.348119510435	2004.94040090137	723.252239684653	130	1280.92403422191	915.740123774321	145.958493500288	1186.87270204987	926.724682846515	143.726106830507	1669.63086704422	639.377097130428	160.220869151727	766.325246746876	1108.9122983273	155.816237405205	1765.74965627802	591.510156803219	148	680.373357202426	1202.44705185644	144.964470975436	2257.35541393684	1319.64500960361	136.964470975436	2282.47727291408	963.244584790635	143	1999.45231728583	1088.95427255974	147.976220778044	1705.21154348934
410.82286725024	142.8861026212	779.165093117615	1319.09306425424	182.660312069993	2019.63446406927	1542.54423117902	143.001327222897	2637.91228282785	1848.90151861544	159.722282269255	2908.78132379313	1350.05236509469	132.013077025505	2613.65321976028	1295.28028584212	148.419523393091	2008.4663448544	723.864268267551	130	1284.45749873278	916.072643901671	145.982272722244	1189.68697715737	927.369487745429	143.717702774928	1672.62796778607	639.663615900428	160.232445009852	767.801367275753	1109.93720093607	155.820562641719	1769.18673354665	591.785958269772	148	681.209952293926	1203.10871743624	144.935497326854	2261.12874008948	1319.75544243053	136.935497326854	2284.8193309362	963.347624274615	143	2001.48041942386	1089.14314734049	147.95927654881	1707.12480376833
410.972435550316	142.881540282327	780.451474410094	1319.72194537447	182.754203688928	2024.38099773901	1542.85608407782	143.004650252251	2641.68533957459	1849.16519813803	159.740685879193	2913.11980115187	1350.54719465658	132.009300504501	2618.23613933605	1295.50910340709	148.497543875973	2011.77232380979	724.324345077973	130	1287.65671755397	916.187943424293	145.994022524852	1192.24854500365	927.860460962488	143.693583430239	1674.99108593494	639.81072702263	160.231291731438	768.954154920717	1110.78136604871	155.809738473358	1771.93031978689	591.989956836697	148	681.821687790546	1203.6127522787	144.898119622694	2264.43413658595	1319.71746662452	136.898119622694	2286.81600453664	963.421961795023	143	2003.36673419557	1089.25661959046	147.938843073884	1708.88424048267
411.0899283343	142.886102621199	781.540537812044	1320.17178233539	182.829388899762	2028.50072274188	1543.08813584395	143.011749802608	2644.8811530524	1849.31626413559	159.753936490042	2916.75500909977	1350.69643394823	132.013077025505	2622.14254542091	1295.43751010884	148.577031605645	2014.71763404308	724.559257352326	130	1290.32805249724	916.019656864889	145.997345554206	1194.42512470253	928.121590685941	143.661110236143	1676.56574931088	639.779276175935	160.220080274945	769.742764782198	1111.37138042117	155.791407669802	1773.83990367585	592.093214139819	148	682.190071220937	1203.88743768233	144.856439399695	2267.08544719903	1319.49162029072	136.856439399695	2288.38964145798	963.433426181457	143	2005.0399426656	1089.25902985349	147.917596325812	1710.43681827088
411.162490029386	142.898917788843	782.376381012974	1320.37478302695	182.879609296416	2031.81444755494	1543.17986908874	143.023779221956	2647.34594180476	1849.28971214104	159.767293132287	2919.51674385643	1350.4623975427	132.025106444853	2625.17353041967	1295.03691489175	148.649772255973	2017.16543446955	724.518860372028	130	1292.32188707373	915.524966767379	145.995349747749	1196.1010564432	928.089366390439	143.628377222012	1677.27021472778	639.533693274546	160.202962588463	770.147457179146	1111.64017588692	155.773270607435	1774.83922749369	592.066190908428	148	682.306543276153	1203.86499596942	144.816514114655	2268.93067003824	1319.041040844	136.816514114655	2289.48164908962	963.342341880182	143	2006.42769135159	1089.10676590842	147.898917788843	1711.71111034236
411.175629175664	142.917596325812	782.909694425598	1320.24115820054	182.900042771343	2034.12819711026	1543.05360700296	143.04072345119	2648.93755553497	1848.99767039267	159.78273655328	2921.25795961317	1349.84472999342	132.046700926337	2627.18808722799	1294.30637191123	148.707186719617	2018.9860251249	724.185076789346	130	1293.5506000778	914.691267400641	145.988250197392	1197.18532086755	927.723570871246	143.603721569035	1677.09735073367	639.045598188964	160.184284051494	770.163351364556	1111.53528424463	155.762992651276	1774.91153332996	591.882955066515	148	682.168971706068	1203.49155878761	144.783693187146	2269.86613719951	1318.33480380062	136.783693187146	2290.04106355968	963.107822287339	143	2007.4539840494	1088.75231781037	147.886102621199	1712.61318176661
411.114301363977	142.938843073884	783.105053304331	1319.67858704627	182.888013351995	2035.25827615421	1542.62713649196	143.061156926116	2649.54101937103	1848.34815168964	159.79983925023	2921.87316498985	1348.87933283269	132.077556980975	2628.11416187106	1293.2749418802	148.740435362187	2020.07302624439	723.572568184083	130	1293.99352478541	913.533328400843	145.976220778044	1197.61728027228	927.01521500054	143.592326740748	1676.11427112445	638.301054650817	160.167339822261	769.798438774197	1111.02948656669	155.764988457733	1774.10124275067	591.528183786577	148	681.781762505506	1202.74268290191	144.762992651276	2269.85834106806	1317.3574315824	136.762992651276	2290.02863281144	962.701331239448	143	2008.05205601305	1088.1574335742	147.881540282327	1713.04075142903
410.964857805158	142.95927654881	782.943991070381	1318.601038099	182.843536097477	2035.05817821185	1541.82223647321	143.082403674188	2649.07881614674	1847.25289639534	159.816143663567	2921.30207952788	1347.61708288153	132.117932698753	2627.94362531734	1291.98233184409	148.74445275169	2020.35096262379	722.717629483559	130	1293.68751884106	912.081739760883	145.957949325913	1197.36793362129	925.993397043224	143.595106616813	1674.43947937888	637.304481845311	160.152228242058	769.06452188735	1110.13077397964	155.779042934895	1772.49363816819	591.001766593254	148	681.152568989597	1201.63757978164	144.754565878021	2268.95552893665	1316.12589640727	136.755893100918	2289.42263773047	962.115239731762	143	2008.17632936687	1087.30701016334	147.886102621199	1712.89744072266
410.719437457771	142.977548000941	782.42984373559	1316.95540500319	182.769559196543	2033.4464846837	1540.58675060428	143.102409434054	2647.52096886224	1845.65676557732	159.828009925489	2919.53344831798	1346.12260022316	132.165584884303	2626.73622640932	1290.48086950341	148.719104466878	2019.7852977087	721.674549301405	130	1292.71606953155	910.382319528921	145.932865598736	1196.44315460297	924.722169545945	143.607574051045	1672.22763490237	636.080056589518	160.137676600757	767.978137940713	1108.88942304397	155.798786836899	1770.21524880172	590.320865521536	148	680.293364868262	1200.24439573384	144.756590935836	2267.30433936975	1314.68713712286	136.75991396519	2288.22960951285	961.367989394755	143	2007.81579208445	1086.21218346918	147.898917788843	1712.11458271947
410.377981520636	142.992900449643	781.591259685584	1314.73327330856	182.670472791843	2030.4260595731	1538.90272762679	143.118547631051	2644.89050779747	1843.55066064414	159.831612571582	2916.60215028107	1344.46180034566	132.215777756107	2624.61761381787	1288.82066124813	148.667149762489	2018.37985554292	720.502408462427	130	1291.19310901322	908.484321902868	145.899869048056	1194.87823379003	923.300185317446	143.62426158873	1669.66091482041	634.671589937081	160.11978694057	766.557432904574	1107.40408971151	155.814932899984	1767.43992280378	589.515838562369	148	679.214888783994	1198.68507143987	144.76271363796	2265.15810423943	1313.12225815251	136.769813188318	2286.49152827608	960.504110559183	143	2007.00304408575	1084.91829966852	147.917596325812	1710.67978494374
409.951202009355	143.007099550357	780.478927082153	1311.98064523614	182.554579606586	2026.08564838451	1536.79237024655	143.130209520281	2641.2467258435	1840.97782100477	159.823787388299	2912.56288028004	1342.70274327379	132.262020317978	2621.7678073442	1287.04246246641	148.5952803401	2016.1768786198	719.259117695008	130	1289.24261207526	906.437624959937	145.858738512028	1192.73313478996	921.851506482862	143.637947984312	1666.94418263426	633.13560937399	160.094768409095	764.826506317715	1105.82154113092	155.815889671792	1764.3978399451	588.625519439776	147.998672777103	677.930631593418	1197.13101585706	144.765525776475	2262.86547933493	1311.54028659747	136.777555195823	2284.29419501047	959.589616777437	142.998672777103	2005.81289119909	1083.50571623979	147.938843073884	1708.64951960885
409.459272630179	143.022451999059	779.164486674727	1308.79378964981	182.429020338555	2020.60176119365	1534.31298940715	143.137676600757	2636.68632332757	1838.02623387041	159.802545447401	2907.49048732933	1340.92252549774	132.297383264146	2618.42526189036	1285.18172173163	148.511424012744	2013.25320302143	718.00036294414	130	1286.99674290947	904.297082524562	145.809850145445	1190.0910182394	920.51464316904	143.642938038246	1664.3036236704	631.534354924442	160.061685982864	762.821915001887	1104.32290278162	155.792110449836	1761.38332515912	587.689184613249	147.995349747749	676.459998624532	1195.78533220706	144.75726521956	2260.86316643418	1310.06691282303	136.774209448794	2281.78638212948	958.700111372718	142.994022524852	2004.36999093191	1082.08126458808	147.960603771707	1706.17096931346
408.930318017856	143.04072345119	777.733848280603	1305.30934859676	182.303093540407	2014.22725943238	1531.54605683138	143.141805662347	2631.33416270236	1834.81465548023	159.767127053891	2901.47381293377	1339.20517299501	132.316061801114	2614.86756122644	1283.26405763848	148.423304721269	2009.7120379843	716.775775711142	130	1284.58675866974	902.118639306428	145.754553460168	1187.0553984403	919.42178304898	143.636983280774	1661.97600561713	629.927302367305	160.021246748072	760.596663662237	1103.10169566506	155.738680424229	1758.73869064035	586.738963989312	147.988250197392	674.83343542321	1194.85435394079	144.731751689869	2259.62803969011	1308.82482269275	136.752185164796	2279.18640436443	957.906296866838	142.982272722244	2002.83866081275	1080.76667538139	147.980871030295	1703.48329005112
408.39602568776	143.061156926116	776.28565843909	1301.6926941331	182.185067100016	2007.29410733423	1528.59697237254	143.143560600305	2625.38136858013	1831.48245932719	159.716818743859	2894.66797420958	1337.64186908259	132.314760770662	2611.39553059003	1281.31482436263	148.33836070711	2005.69061138566	715.632884428692	130	1282.14671908701	899.963721749133	145.697168317454	1183.75368449618	918.685909232868	143.620121452323	1660.18592969264	628.367828150037	159.978753251928	758.2297052813	1102.33458153442	155.656727182778	1756.81289006859	585.800654694613	147.976220778044	673.098744401129	1194.51102920094	144.685939971545	2259.58557605528	1307.91686907265	136.708513942514	2276.75116524706	957.2617734438	142.959820723185	2001.3939654762	1079.67981092404	148	1700.8772686992
407.888056324786	143.082403674188	774.924349640514	1298.12033725584	182.080902728005	2000.19707906512	1525.58559362581	143.143560600305	2619.09903438041	1828.17478289572	159.653121477772	2887.3224690808	1336.33047245944	132.29351402259	2608.31391791479	1279.38201676348	148.261846594691	2001.37831008837	714.619513208427	130	1279.81763902659	897.907088996731	145.642525174774	1180.34347295602	918.383040113633	143.593975834879	1659.11872949504	626.905572347199	159.939641240033	755.830767166367	1102.152948665	155.553252383689	1755.90738519657	584.899764646995	147.95927654881	671.328900112459	1194.85641926672	144.62199836219	2261.02566841531	1307.40557858455	136.645327151409	2274.73999465789	956.791390235872	142.923747524246	2000.19471882903	1078.90964276576	148.019128969705	1698.64432518207
407.433061457942	143.101082211157	773.747894967076	1294.76795522901	181.993848801566	1993.36078575034	1522.64485277847	143.141805662347	2612.83874795875	1825.03467833987	159.577908395805	2879.79270537467	1335.3606788696	132.257030264044	2605.91356342038	1277.53838637355	148.197454552599	1997.02508318891	713.782941396696	130	1277.74917132756	896.032444300854	145.59643383971	1177.01083313659	918.545393157286	143.560984796795	1658.90414829793	625.590221213006	159.909881843156	753.540160930352	1102.61974880588	155.440770141163	1756.23016316087	584.067644112665	147.938843073884	669.625699355656	1195.89713899405	144.546414691193	2264.01807354557	1307.30408264458	136.570979661445	2273.35461906094	956.490607828842	142.874340400738	1999.3419100911	1078.49829852609	148.04072345119	1697.00311936896
407.052069268621	143.1138973788	772.832797752192	1291.79479478036	181.924024233696	1987.19590846539	1519.9131167226	143.137676600757	2606.99556392119	1822.19501746944	159.493510593848	2872.5081516185	1334.80404383158	132.211915359552	2604.44204357152	1275.88273549665	148.147238963119	1992.93592505048	713.165855085676	130	1276.09284286112	894.428173444317	145.564680315064	1173.96188872834	919.156363082207	143.524050605512	1659.5890482436	624.470090300632	159.893290084935	751.51322493615	1103.71826792796	155.332850237511	1757.84993725337	583.345615697241	147.917596325812	668.109631048007	1197.54399661713	144.468658140769	2268.38138243367	1307.58369515717	136.498326924495	2272.69447973283	956.332641019994	142.815715948506	1998.85950088509	1078.43670554186	148.065807178367	1696.05549174467
406.756704666551	143.118459717673	772.224919172936	1289.33231976306	181.868300874391	1982.04936892516	1517.52463081658	143.130209520281	2601.95411188745	1819.77155994741	159.404609028846	2865.9179660307	1334.69447703386	132.167060205521	2604.05895878748	1274.5213020281	148.111880754552	1989.41984129504	712.799767602363	130	1274.97669720664	893.171154439098	145.55186514742	1171.38988365999	920.15621873715	143.485345678455	1661.13506829347	623.591876996002	159.89075287345	749.900900678002	1105.35481012743	155.242190606065	1760.68030245146	582.781648562206	147.898917788843	666.907537960392	1199.62802257398	144.398457830412	2273.70971107837	1308.18066355515	136.43926919498	2272.74743428392	956.279411854541	142.755357188539	1998.69823347727	1078.66855267823	148.094153476797	1695.76896588568
406.553220887428	143.1138973788	771.924406654836	1287.47076121683	181.821687861432	1978.14604113688	1515.5969813691	143.118547631051	2598.00808098171	1817.85639100333	159.315908708051	2860.3981980085	1335.02393112885	132.130309851513	2604.81099577229	1273.54845409552	148.09091362322	1986.74095425267	712.698769764173	130	1274.48582911823	892.317639129841	145.560377796225	1169.45022026993	921.449054807903	143.4496301917	1663.42012865748	622.993616809095	159.90024501174	748.823373507549	1107.37210985194	155.178915901582	1764.49026192668	582.421446711043	147.886102621199	666.129420188897	1201.92915828594	144.343033677037	2279.45231279828	1309.00621001771	136.403125238117	2273.39903161426	956.288955434694	142.702616735854	1998.75628409787	1079.09925277532	148.124861433113	1695.99564478347
406.437711710193	143.101082211157	771.89345070082	1286.24380776928	181.779571991643	1975.57069180329	1514.20534777621	143.102409434054	2595.32227395821	1816.49613844617	159.232719285566	2856.20155752815	1335.73359039769	132.106553347233	2606.62918534067	1273.01858913214	148.082774125277	1985.0726136398	712.851759136966	130	1274.64607056972	891.884375338448	145.588457499193	1168.23175511098	922.917234223553	143.419790454035	1666.2508135099	622.69494354025	159.917596325812	748.345251607335	1109.574533321	155.146732624048	1768.93462529501	582.297417962504	147.881540282327	665.846805173491	1204.21899297777	144.305626014291	2285.02509062106	1309.96313384987	136.393130373467	2274.46487507634	956.327161396146	142.66656069237	1998.91679315366	1079.61839360539	148.15462082999	1696.51821964537
406.401308954382	143.082403674188	772.061125193495	1285.62648853129	181.737629910783	1974.2579975885	1513.37419214804	143.082403674188	2593.8991719964	1815.68956304383	159.159983372839	2853.40683313942	1336.7252622264	132.09668595068	2609.32384445885	1272.93367326882	148.084936148072	1984.45053138354	713.222872309434	130	1275.40793390746	891.845711513928	145.632159305237	1167.73631311617	924.434088522978	143.399089918165	1669.403648458	622.690704113645	159.938843073884	748.466293009262	1111.75601255392	155.143386877018	1773.62649840193	582.415337246609	147.886102621199	666.078933715587	1206.29618656426	144.285742226335	2289.94587524592	1310.95512669645	136.404973917713	2275.76360362931	956.368594483002	142.653745524726	1999.09663503016	1080.11716372229	148.179616643789	1697.12679849718
406.428436830657	143.061156926116	772.342044045963	1285.53584963383	181.692603940755	1974.01999807079	1513.0650773039	143.061156926116	2593.59377776768	1815.38012555739	159.101336202931	2851.92087661954	1337.87369159872	132.098803729047	2612.62568462423	1273.23592437326	148.094153476796	1984.7765989377	713.752957396905	130	1276.65784884286	892.133252191916	145.68285198243	1167.88210426248	925.884832606946	143.389009177964	1672.65809543086	622.948067102543	159.960603771707	749.122076225679	1113.73357305803	155.162615100957	1778.20047368311	582.751022334556	147.898917788843	666.786478066775	1208.01832048488	144.280376983712	2293.91662374146	1311.89588878902	136.430347561452	2277.14449558857	956.398571585168	142.66656069237	1999.26603034062	1080.50688882498	148.196301052989	1697.66350996343
406.500548093006	143.04072345119	772.659399479651	1285.84748329076	181.641633533025	1974.60098695644	1513.18628127312	143.04072345119	2594.17038533208	1815.46646075403	159.058450728946	2851.52757633455	1339.05220303377	132.107059686304	2616.22403756451	1273.82428745295	148.105732463407	1985.83181565723	714.372066024827	130	1278.23192527737	892.650563494629	145.732013547731	1168.51877117263	927.177292690092	143.390147466846	1675.83174570277	623.409054061549	159.982198253191	750.195537303095	1115.37153965383	155.19544083564	1782.37528468538	583.251151264042	147.917596325812	667.87696858703	1209.3166816392	144.286507344408	2296.87391675769	1312.71694434543	136.458676704427	2278.51912797307	956.410212794549	142.702616735854	1999.45608099776	1080.73293059776	148.202164422313	1698.06239198153
406.597390611519	143.023779221956	772.96274314196	1286.41412813372	181.583532575319	1975.73481650083	1513.60557861475	143.023779221956	2595.3649145675	1815.81446453628	159.029756697104	2851.95203252566	1340.15285316737	132.115224601697	2619.82599654555	1274.57380558555	148.115224601697	1987.33627463535	715.010540603278	130	1279.95137061549	893.290913056025	145.770192059291	1169.46305826352	928.25443651144	143.401721646283	1678.80744987026	624.000638631605	160.005977475148	751.54527953828	1116.59705489354	155.23403409061	1785.99465542596	583.845302366513	147.938843073884	669.228060762787	1210.19835077157	144.302293070392	2298.96462476055	1313.37203208339	136.481464019045	2279.85740558965	956.40356616029	142.755357188539	1999.74056665985	1080.78053244983	148.196301052989	1698.34744693037
406.700351460857	143.011749802608	773.237075037104	1287.09467966254	181.519400353261	1977.19904347896	1514.17993790843	143.013077025505	2596.94327510687	1816.28498798481	159.014404248402	2852.92721888717	1341.09764841865	132.11978694057	2623.18512631182	1275.35792998125	148.11978694057	1988.9974282541	715.607573981452	130.001327222897	1281.64679424031	893.952266154134	145.792480900924	1170.53162392254	929.095414373859	143.422097166417	1681.53330654726	624.64698917145	160.035529024564	753.027894964679	1117.40116226035	155.272536373289	1789.02726560308	584.458314466542	147.95927654881	670.70680694763	1210.72854542935	144.326336849983	2300.49102954775	1313.8392342836	136.493493438393	2281.18660359498	956.382581715613	142.815715948506	2000.21639949251	1080.6718226003	148.179616643789	1698.61803603216
406.795542431556	143.004650252251	773.506041452432	1287.77560303303	181.451048097322	1978.85876103465	1514.78113558804	143.009300504501	2598.75965688578	1816.75595070674	159.009300504501	2854.26677736877	1341.84945340363	132.118547631051	2626.14378717416	1276.07662193724	148.118547631051	1990.57600898865	716.122232335176	130.004650252251	1283.19129408257	894.558365416037	145.79798867075	1171.57967299686	929.712557424752	143.451198283096	1684.00773121106	625.281266299895	160.074925252857	754.523661164217	1117.82884115086	155.309936795125	1791.53892147416	585.025830723672	147.976220778044	672.19493212221	1211.00157533984	144.358366466975	2301.80204633058	1314.11583384798	136.494749903367	2282.55183093892	956.349740504164	142.874340400738	2000.96283074711	1080.4537156859	148.15462082999	1698.99982148678
406.875405765774	143.001327222897	773.823394246092	1288.38999793595	181.384170746746	1980.68187031451	1515.32292155551	143.013077025505	2600.78017027178	1817.1496042581	159.013077025505	2855.90470160259	1342.41361828411	132.112832013765	2628.64383190822	1276.67672328499	148.112832013765	1991.92874145851	716.537990518441	130.011749802608	1284.51922025374	895.069030312875	145.79105993639	1172.5267967614	930.142285614796	143.487336677737	1686.26569005215	625.858190793292	160.125659599262	755.955798446284	1117.96058458879	155.34528944147	1793.65836062377	585.50772698794	147.988250197392	673.61013304113	1211.11477668205	144.39885385684	2303.20205052691	1314.21222218502	136.490177264672	2283.99254470321	956.307173756104	142.923747524246	2002.01963743195	1080.18338879523	148.12618865601	1699.60603753419
406.940059665727	143	774.253080005511	1288.92234906985	181.325639015066	1982.71452475914	1515.77161626138	143.023779221956	2603.05757321551	1817.44123434847	159.025106444853	2857.87606907729	1342.82552340355	132.107510119041	2630.73033180111	1277.15405993033	148.106182896144	1993.03474766548	716.859925545727	130.023779221956	1285.63334556038	895.48097577719	145.778592502158	1173.36486272433	930.433840999824	143.529063377121	1688.34847973096	626.356001916943	160.184284051494	757.29104881106	1117.8902798987	155.380846962345	1795.52183960481	585.890549571218	147.995349747749	674.906940115513	1211.14155252818	144.446654140711	2304.87768159195	1314.1479454673	136.487377591901	2285.51783373966	956.252358576897	142.959820723185	2003.3688756183	1079.91149078807	148.100130951944	1700.49491967336
406.994110438231	143	774.844601201257	1289.39581307797	181.282115891106	1985.02947384042	1516.1380618166	143.04072345119	2605.66983921767	1817.65086605129	159.045373703441	2860.25758006687	1343.14067625132	132.106530629557	2632.52468366814	1277.54486852778	148.100553154409	1993.97384109205	717.110349253431	130.04072345119	1286.59285693119	895.823035273363	145.767381045665	1174.1456176687	930.636130011719	143.573908161757	1690.29376434722	626.773459145102	160.244642811461	758.534435000558	1117.70518946152	155.41796010887	1797.24769661927	586.182621871739	147.998672777103	676.078110170295	1211.12449810369	144.50192706728	2306.86846503878	1313.94424917978	136.492885361727	2287.0849907643	956.178565779276	142.982272722244	2004.92553657931	1079.67060702291	148.082207233226	1701.64656532101
407.047037253252	143	775.615227045616	1289.85722384005	181.259301051638	1987.67699757121	1516.46220306276	143.061156926116	2608.65975041477	1817.82989275191	159.072906728724	2863.10080990982	1343.41615440163	132.113630179914	2634.19327726631	1277.90064390374	148.097230125055	1994.876929109	717.31797898356	130.061156926116	1287.49290474694	896.136645946078	145.762904737898	1174.95062592813	930.786392416537	143.61995350767	1692.12756762182	627.119027995796	160.298710487042	759.706945031743	1117.47208207861	155.459041593294	1798.91792602674	586.401068925228	148	677.133081225291	1211.07327070019	144.561248382969	2309.09770644821	1313.61976066032	136.51104514177	2288.615611297	956.074147490349	142.994022524852	2006.56016270781	1079.47248568993	148.077579698651	1702.9869083263
407.105653839397	143	776.541059383082	1290.35318905876	181.260741674936	1990.63790854535	1516.78879309804	143.082403674188	2611.97979651219	1818.03451634732	159.106182896144	2866.36777569786	1343.69651942504	132.129962118101	2635.8815120099	1278.26219223273	148.094433093536	1995.86194077498	717.510054245787	130.082403674188	1288.42472350386	896.458825978164	145.767381045665	1175.85261885992	930.904215816641	143.665412754981	1693.85573479786	627.399210201217	160.338089559881	760.825901913555	1117.22958763282	155.505255658855	1800.5653795919	586.558743141319	148	678.082305696909	1210.97775143982	144.620275112865	2311.39715577811	1313.19185220179	136.540001634897	2289.99911759892	955.925654149709	142.998672777103	2008.11235237233	1079.3137123553	148.088281895102	1704.39754540732
407.173459883134	143	777.558031463482	1290.90949932048	181.286519762261	1993.80712814565	1517.14557379404	143.101082211157	2615.47783077109	1818.30018141692	159.141805662347	2869.91024561874	1344.00489105208	132.153555464955	2637.68800764186	1278.64572641895	148.089052791809	1996.99734040622	717.704704166819	130.101082211157	1289.45507234338	896.808240227849	145.779919725055	1176.89110060778	930.991366365909	143.708656262201	1695.46469849559	627.614286276061	160.359331500779	761.8924481719	1116.99024138341	155.558166927537	1802.17856943954	586.66096652255	148	678.927762538213	1210.81144869207	144.673127237637	2313.56412810177	1312.66926896592	136.573372249377	2291.11254996607	955.715278591024	143	2009.41520948958	1079.1726634453	148.113630179914	1705.74619296135
407.249315781388	143	778.574485683485	1291.52766276217	181.334493503381	1997.0035761286	1517.54057718405	143.1138973788	2618.9203474218	1818.64107032508	159.175054304917	2873.48444904677	1344.33731150074	132.179704557167	2639.62634977024	1279.03335854287	148.077824179861	1998.27410604976	717.905223990856	130.1138973788	1290.60082667058	897.177233611263	145.797037411537	1178.05239140679	931.03262927292	143.748929280654	1696.92022841631	627.755051961977	160.363196004734	762.883339389807	1116.74333375534	155.61808767262	1803.70595740582	586.701889306828	148	679.655873882291	1210.54564111605	144.713164194765	2315.4191819914	1312.05781907758	136.600459649098	2291.86137762099	955.427007675087	143	2010.33677442829	1079.02383193416	148.148210852555	1706.92522258623
407.325812738352	143	779.493179011586	1292.17784826689	181.400575608779	2000.00886580579	1517.95908009722	143.11978694057	2622.05124918476	1819.03876931224	159.200863391861	2876.8107863168	1344.66619584834	132.202190614758	2641.62759041146	1279.38207450228	148.058630014454	1999.6147496361	718.100726877696	130.118459717673	1291.82892829805	897.533773025639	145.815715948506	1179.27679404122	931.006127232189	143.783960386032	1698.17820426457	627.808695397266	160.354506770194	763.762577978827	1116.46789592909	155.682444897593	1805.07757664111	586.671910438259	148	680.244598590101	1210.16242309079	144.736134881176	2316.82928683322	1311.36717394149	136.613821028944	2292.18850154837	955.052125450793	143	2010.79161158277	1078.84347310722	148.184813108242	1707.85930694356
407.394316617007	143	780.231661736554	1292.81499937037	181.478241320923	2002.61778445514	1518.37839418676	143.118547631051	2624.65704888354	1819.4630507181	159.214979589957	2879.64251784542	1344.95591467194	132.216306812854	2643.55856329187	1279.64621921353	148.031493704612	2000.90408192123	718.27420756799	130.1138973788	1293.06430979706	897.837204437266	145.832660177739	1180.47279442957	930.892722462149	143.812299443552	1699.19010543985	627.767069718519	160.341328762142	764.491934964467	1116.1426248511	155.74780918826	1806.21901031954	586.567010055029	148	680.67376491068	1209.6565007119	144.742715744182	2317.73279833793	1310.61073814091	136.607838816195	2292.08434762549	954.590680326424	143	2010.75514742042	1078.61438507933	148.214979589957	1708.51257703264
407.446665043958	143	780.738356486858	1293.3882875355	181.560557081733	2004.67332656602	1518.77765580853	143.112832013765	2626.6079736721	1819.8792798902	159.214979589957	2881.80733486921	1345.17047522469	132.219629842208	2645.27425609249	1279.78836539452	148	2002.0323361206	718.405032020569	130.101082211157	1294.21905063962	898.047869556013	145.845117312148	1181.54636228633	930.686176180934	143.832934232258	1699.91832598155	627.634757388925	160.331190398829	765.043368893183	1115.75815436812	155.808278220142	1807.0703971822	586.392822674519	148	680.934834057232	1209.04391838725	144.737629910783	2318.15626410876	1309.81296878216	136.584339003463	2291.60577291864	954.055768521089	143	2010.27506039056	1078.33095934017	148.232357096474	1708.8957123135
407.477899415771	143	780.998188354136	1293.85084718646	181.641633533025	2006.09616500314	1519.14019495103	143.106182896144	2627.8741923686	1820.25331484353	159.200863391861	2883.2315682659	1345.28391053853	132.21261319447	2646.63961740579	1279.78988409504	147.968506295388	2002.90922668705	718.47725265114	130.082403674188	1295.20684233239	898.140546379186	145.853022894742	1182.41840541739	930.393945994347	143.844596121488	1700.3512624301	627.428282185778	160.328622187725	765.410312487708	1115.31753221316	155.857297183308	1807.61115255186	586.166951440723	148	681.03851802426	1208.36110288696	144.726805742422	2318.19331182903	1309.01162075782	136.548685307215	2290.85482588402	953.475396513389	143	2009.45117719622	1078.00496315072	148.232357096474	1709.05492538248
407.488837623921	143	781.037525372896	1294.17440214483	181.716906657237	2006.90379491395	1519.46365025926	143.101880377306	2628.53308980607	1820.56742624974	159.175054304917	2883.9568151944	1345.28398921133	132.198833526873	2647.56205456734	1279.65028249455	147.942697208443	2003.4827210028	718.482239230305	130.061156926116	1295.96361178763	898.105757104037	145.855386231317	1183.04066737465	930.037457951847	143.847566610255	1700.49534809806	627.17363360642	160.333710454859	765.604549227829	1114.83618747515	155.887230037434	1807.84415700985	585.913052183427	148	681.011459693674	1207.65443131337	144.716558785882	2317.98707374042	1308.24534885522	136.508512667886	2289.97300114568	952.881793568679	143	2008.42491895095	1077.65733024037	148.214979589957	1709.06674521381
407.485685480138	143	780.907324325685	1294.35128517434	181.783439195371	2007.18865411077	1519.75179337723	143.101880377306	2628.72759912249	1820.81444363885	159.141805662347	2884.09942289021	1345.17421238125	132.182529113536	2648.01870221201	1279.38759754942	147.926826072389	2003.75203620016	718.420196477039	130.04072345119	1296.46330711888	897.954917854601	145.851695671845	1183.40786046903	929.643041325559	143.842035151293	1700.37180195813	626.900051526859	160.342124879833	765.652376385235	1114.33379966558	155.89134194357	1807.79432363088	585.655520387485	148	680.888647132997	1206.96324803211	144.709192174581	2317.68259438326	1307.5422560887	136.472167670402	2289.10037215787	952.303712421048	143	2007.34084935603	1077.30986361948	148.183485885345	1709.01433375742
407.476843340103	143	780.674033742559	1294.39289198533	181.839139837001	2007.10321199427	1520.01137198783	143.106182896144	2628.64237050519	1820.99469522352	159.106182896144	2883.83167546983	1344.96235854968	132.167339822261	2648.0436452629	1279.02288159196	147.921369787903	2003.75436158055	718.295661071018	130.023779221956	1296.71315897498	897.706860656218	145.839139837001	1183.54898158206	929.234611483389	143.826682702592	1700.00317838695	626.631263178264	160.346604246513	765.585938126539	1113.82825302918	155.864327605638	1807.49046033732	585.414153392087	148	680.706155106836	1206.3174835056	144.703684404755	2317.39325881388	1306.91842501184	136.445013308577	2288.34933567032	951.763176660122	143	2006.32283483032	1076.98536747252	148.143560600305	1708.9742920068
407.470949040732	143	780.396333104213	1294.32631577198	181.883189376457	2006.81690562514	1520.24509864548	143.112832013765	2628.44528449163	1821.11029888632	159.072906728724	2883.31853598672	1344.65298221746	132.155310402913	2647.71413267342	1278.56863638808	147.924695876169	2003.54900774259	718.111412767374	130.011749802608	1296.74504183034	897.379849918419	145.814932899984	1183.51621556584	928.822709296797	143.799743608708	1699.40683880703	626.377564205569	160.339416782778	765.433956177259	1113.32419149356	155.804139869184	1806.95616944274	585.196625901105	147.998672777103	680.490907997848	1205.72225696624	144.697018131681	2317.1755450325	1306.36678304421	136.430063207112	2287.78555115433	951.266227851974	143	2005.4503680284	1076.69524819053	148.101880377306	1709.00293823168
407.473149721718	143	780.115114085078	1294.18717765823	181.914016245771	2006.48896638311	1520.44620372873	143.118547631051	2628.25992824034	1821.15871375033	159.045373703441	2882.69073980034	1344.2414532829	132.146455914597	2647.12150883886	1278.02190931625	147.930416300629	2003.19690004107	717.866244165594	130.004650252251	1296.60236935034	896.984599066812	145.774209448794	1183.36924260483	928.401508257353	143.759659973415	1698.57977672712	626.134405184837	160.316087993559	765.211930569841	1112.81264136946	155.714286269975	1806.19462928376	584.99682205968	147.995349747749	680.253027284941	1205.16424937946	144.684877040245	2317.01224593854	1305.86606794917	136.427957407255	2287.41137981113	950.808340917319	143	2004.74372285072	1076.44382325191	148.064502673146	1709.12297197679
407.483655615149	143	779.84806107462	1294.01399973878	181.929519851706	2006.24630779119	1520.60442276843	143.11978694057	2628.14927650362	1821.13405831259	159.025106444853	2882.02442797438	1343.71459864581	132.139003823654	2646.34387147682	1277.36395907934	147.9321742975	2002.73421557305	717.553878672007	130.001327222897	1296.32239729394	896.520946072411	145.714807460636	1183.15815988765	927.948875372173	143.705156854629	1697.51367827852	625.882129352447	160.276136516073	764.925458669575	1112.27108072683	155.602747420575	1805.20401133721	584.795428672016	147.988250197392	679.986012069892	1204.61470826336	144.666177873053	2316.83571195879	1305.38431951453	136.438383115452	2287.18470605523	950.375627580211	143	2004.17688945589	1076.22634349653	148.035529024564	1709.33182389512
407.497639655438	143	779.591966589483	1293.84184495191	181.929519851706	2006.17177027068	1520.70413831943	143.1138973788	2628.12106935909	1821.02608412009	159.011749802608	2881.34761509302	1343.06031387666	132.130209520281	2645.43930579212	1276.57338902136	147.923747524246	2002.17971519947	717.168181239677	130	1295.93497457072	895.982569965286	145.637860070934	1182.91869388726	927.438936498971	143.636983280774	1696.20611318619	625.595822603959	160.224209336535	764.573896602735	1111.67631077439	155.481405678975	1803.9884102436	584.568979151597	147.976220778044	679.675776980041	1204.03840384738	144.640399785728	2316.53387652435	1304.8854579737	136.458235561058	2287.01739055264	949.949695485787	143	2003.67741267639	1076.03059821379	148.016400054859	1709.59255975289
407.505429382142	143	779.329119633338	1293.69371659494	181.915343468667	2006.29536693327	1520.72544035391	143.101082211157	2628.12904002152	1820.81864547878	159.004650252251	2880.64149258508	1342.27543297473	132.118547631051	2644.43994504515	1275.63915247399	147.90331404932	2001.53385708597	716.708210093492	130	1295.45926124273	895.364862807217	145.548895192503	1182.6704090017	926.851366875387	143.559229858837	1694.67961303435	625.252903032746	160.167339822261	764.158819710448	1111.01186900515	155.362139929066	1802.57377204336	584.296705170021	147.95927654881	679.306329583583	1203.40695655483	144.608357365605	2316.00546432878	1304.34659983269	136.482710184196	2286.82625678005	949.517887127166	143	2003.16796323419	1075.84475988953	148.005977475148	1709.85532843876
407.495587403039	142.998672777103	779.038718530078	1293.57710317804	181.887839628708	2006.60155834907	1520.64912416872	143.082403674188	2628.10072887338	1820.49756756913	159.001327222897	2879.86858518659	1341.38030705283	132.10373665695	2643.37440468917	1274.57706065569	147.872222622371	2000.80172454092	716.186731252351	130	1294.91571274434	894.677013333478	145.458409505541	1182.42617437821	926.187643928304	143.476914098026	1693.00064406922	624.844686620205	160.113630179914	763.696319974812	1110.28259557125	155.256218890783	1801.02661019757	583.96901899657	147.938843073884	678.875565392519	1202.70803683049	144.57258093886	2315.17459054021	1303.76183460741	136.506773760493	2286.5387414634	949.074298176254	143	2002.5754984863	1075.65862891772	148.001327222897	1710.05666297002
407.456190469324	142.994022524852	778.704450060609	1293.4768364419	181.850889639609	2007.03395283916	1520.45435568851	143.061156926116	2627.96358931159	1820.04842499899	159	2878.99986205115	1340.4244049549	132.087053926439	2642.26826038479	1273.43985741288	147.83643363983	1999.99878383458	715.63244551067	130	1294.33188099906	893.948883275468	145.379867206822	1182.19913136	925.471849974879	143.395925356528	1691.27688343354	624.379080209957	160.069152925397	763.218382953832	1109.51245145416	155.170611100238	1799.44896513256	583.592491570576	147.917596325812	678.398788253207	1201.95095005088	144.534682044039	2314.02929563306	1303.14647385478	136.524125074564	2286.12372735471	948.624174712455	143	2001.86489401405	1075.46744361105	148	1710.14020063096
407.377153310331	142.983599945141	778.323544960046	1293.35842957437	181.808545640224	2007.50464379585	1520.12254039736	143.04072345119	2627.66113780914	1819.46090666669	159	2878.02567282238	1339.48220898261	132.072906728724	2641.17732901545	1272.31567492655	147.803698947011	1999.17733435647	715.090050498582	130	1293.75682905618	893.23263920945	145.326699039076	1182.01409059432	924.754565763607	143.32407092367	1689.65231768588	623.883995142655	160.036856247461	762.773529982788	1108.74595656034	155.108640900976	1797.96817915711	583.189888355832	147.898917788843	677.909374851868	1201.16734642159	144.495949592132	2312.62490153415	1302.53783391725	136.529473161733	2285.59102829259	948.182960728148	143	2001.04085254652	1075.27315335405	148	1710.058591539
407.251115881129	142.964470975436	777.906464534362	1293.17323008645	181.763607583574	2007.90894850206	1519.63845747411	143.023779221956	2627.16883906764	1818.72909148058	159	2876.96618431639	1338.64046514056	132.064502673146	2640.17676759226	1271.31203141864	147.78045807117	1998.41812725014	714.613433409963	130	1293.25657361014	892.593253926812	145.308020502108	1181.9070485082	924.099989901627	143.267390792556	1688.28431287605	623.398934125328	160.016400054859	762.417922646406	1108.03556169753	155.070200531554	1796.7154919998	582.796020626356	147.886102621199	677.458169940622	1200.40300253235	144.456820424783	2311.07515287294	1301.98410561995	136.518244549785	2284.98520843938	947.770760051337	143	2000.14593421261	1075.08049460606	148	1709.78273723869
407.07986930042	142.935497326854	777.478122286392	1292.87734395183	181.720517736897	2008.15257868148	1519.00662493057	143.011749802608	2626.50718796907	1817.86862645858	159	2875.87791511571	1337.9821223205	132.064502673146	2639.36444222171	1270.53496515679	147.772205242399	1997.82395540472	714.256582631691	130	1292.91124379319	892.096608769417	145.328453977034	1181.92313302334	923.57401115453	143.230440803457	1687.31500443499	622.968467199078	160.005977475148	762.203814505584	1107.43247295711	155.054863141957	1795.80057054372	582.452227630682	147.881540282327	677.100091055745	1199.71131901883	144.416996481429	2309.55117481621	1301.53914695904	136.489649218379	2284.3913434746	947.411982189041	143	1999.26373181623	1074.90021604995	148	1709.32115844822
406.86951933249	142.898119622694	777.076276393207	1292.43663981104	181.683140032737	2008.16850171428	1518.24691421758	143.004650252251	2625.74791305762	1816.90929166324	159	2874.85122308131	1337.57148379909	132.072906728724	2638.84743027396	1270.07160890037	147.78045807117	1997.50824744903	714.063868899653	130	1292.80520442319	891.796259488066	145.385323491309	1182.10876196214	923.233758474031	143.217273095227	1686.85295839066	622.634222218351	160.001327222897	762.171011692162	1106.97859009669	155.059777951842	1795.29771615564	582.200215300631	147.886102621199	676.886078972831	1199.14352460366	144.376360943617	2308.25215902766	1301.249103974	136.444360369403	2283.91774956118	947.129048348761	143	1998.50376453231	1074.7447753709	148	1708.72206799277
406.636797139634	142.856439399695	776.745314797063	1291.84947479907	181.655576007834	2007.9464403998	1517.4072285665	143.001327222897	2625.00651109476	1815.90803065128	159	2874.00250744037	1337.44400932599	132.087053926439	2638.7442855655	1269.97362579175	147.803698947011	1997.58957486511	714.062788812899	130	1293.01911492098	891.722511812772	145.470526838267	1182.5087199189	923.124647247412	143.227358642602	1686.96834866007	622.43057195685	160	762.343849922971	1106.71009611575	155.082207233226	1795.25352060869	582.078960500948	147.898917788843	676.859919380792	1198.74051009626	144.336072935633	2307.38835023997	1301.14724451415	136.389256580144	2283.68861577226	946.941057675747	143	1997.9883950052	1074.63183192265	148	1708.08017692783
406.40495649622	142.816514114655	776.529872480194	1291.15038478905	181.641459809738	2007.54092521181	1516.55877432799	143	2624.42974587772	1814.9443573733	159	2873.45699796674	1337.60522122039	132.102409434054	2639.16754377042	1270.25169056419	147.837760862727	1998.17279365955	714.261299441166	130	1293.61956871914	891.879757515248	145.572306884342	1183.15646018913	923.271571459995	143.258611478715	1687.68812495611	622.379377632933	160	762.729400670462	1106.65177374516	155.11925992165	1795.6877854151	582.119134970589	147.917596325812	677.052781487359	1198.53332755475	144.300291701714	2307.1618023362	1301.25623440481	136.332588379649	2283.84187214985	946.86621958834	143	1997.84886031411	1074.58795578334	148	1707.53673541986
406.199131408793	142.785020410043	776.470783629525	1290.40281022162	181.643214747696	2007.0726375736	1515.7816645916	143	2624.17528156051	1814.10285559481	159	2873.336455636	1338.03184502267	132.1138973788	2640.21120967989	1270.87502597906	147.876872874622	1999.3321382676	714.645024341152	130	1294.64856452799	892.2457606997	145.677777489888	1184.07275931839	923.676877895047	143.303526817689	1689.01096563217	622.487411642409	160	763.322976150679	1106.81375429183	155.165584884303	1796.61649852524	582.335846642886	147.938843073884	677.483563286532	1198.54325115376	144.273442736756	2307.73331913752	1301.58782669105	136.285192539364	2284.50307593812	946.923362870616	143	1998.20163144222	1074.64896336205	148	1707.25748768432
406.043449903476	142.767642903526	776.595898348991	1289.69549081655	181.661460007382	2006.70840399113	1515.15744139056	143	2624.38320320156	1813.46712173135	159.001327222897	2873.73800686673	1338.68611169731	132.118459717673	2641.93163237913	1271.78474170307	147.915063851928	2001.09387849891	715.186066054458	130	1296.1149181946	892.78278981073	145.775536671691	1185.25746347427	924.322627252852	143.354506770194	1690.90735894171	622.747326855281	160	764.108788778863	1107.19178834459	155.215777756107	1798.05133692667	582.728469032804	147.95927654881	678.154932323713	1198.77699561018	144.261863750145	2309.19248575201	1302.14033971324	136.255342100623	2285.75818688671	947.127023951527	143	1999.12562624642	1074.85209268644	148	1707.40027421336
405.957491738268	142.767642903526	776.918628535866	1289.12333216616	181.694736174802	2006.6320938847	1514.75174522912	143	2625.15111670239	1813.10137148518	159.004650252251	2874.72082234396	1339.52026127374	132.115224601697	2644.34444964154	1272.9034801938	147.947526746202	2003.43655858927	715.845259539174	130	1297.993335841	893.440633354873	145.856613122982	1186.69292165306	925.167239671545	143.402325172083	1693.31932573342	623.13498509648	160	765.060723575167	1107.76253446733	155.262020317978	1799.98674380542	583.272935972951	147.976220778044	679.050927338203	1199.22257654466	144.268676025192	2311.52954022075	1302.89304933651	136.249569773162	2287.62824469783	947.481688425074	143	2000.64402906263	1075.2245015932	148	1708.08058542212
405.948492560366	142.785020410043	777.427178569021	1288.76430936811	181.739646706602	2006.99082868645	1514.59553169189	143	2626.49342518624	1813.03104535523	159.011749802608	2876.27381040224	1340.48154030595	132.105732463407	2647.38355882725	1274.14441868716	147.971570525793	2006.26557044921	716.576536277163	130	1300.20745885866	894.16541693965	145.917770049098	1188.33144035316	926.147240477726	143.439215118937	1696.15138714686	623.61275487465	160	766.13978516998	1108.47878064779	155.297383264146	1802.38340760074	583.92735907748	147.988250197392	680.131194321945	1199.84832417478	144.294409868089	2314.60151937156	1303.80911887486	136.267390792556	2290.02965035936	947.984004969083	143	2002.69484137517	1075.77981014793	148	1709.32997194953
406.013174449447	142.816514114655	778.085383205312	1288.66533115538	181.791407669802	2007.86009856788	1514.68374862375	143	2628.33388250692	1813.24414913765	159.023779221956	2878.31760146789	1341.50844930298	132.094153476796	2650.89435861827	1275.41621789784	147.986922974495	2009.42212793765	717.327001682566	130	1302.62995778888	894.89745723238	145.958493500288	1190.09435797668	927.181898428264	143.460403412113	1699.25112398348	624.128823736118	160	767.286587283482	1109.2725448526	155.316061801114	1805.1307699012	584.63206087084	147.995349747749	681.326621333321	1200.59909506183	144.335649910281	2318.13207372685	1304.82840318347	136.303614731068	2292.77250980713	948.610876288841	143	2005.12989353768	1076.50322753242	148	1711.07605959649
406.134350733687	142.856439399695	778.827547075799	1288.82417610137	181.844689597087	2009.2058047861	1514.96552785085	143	2630.48740131081	1813.68017400605	159.04072345119	2880.68568167719	1342.52717524705	132.084936148072	2654.6202425339	1276.62466306043	147.995349747749	2012.68313501724	718.037560038412	130	1305.07987545816	895.573979089959	145.982272722244	1191.86728144181	928.171608670092	143.465081119641	1702.40142436712	624.619885749697	160	768.418556580056	1110.05034697578	155.316087993559	1808.03113196049	585.312858043457	147.998672777103	682.539326154613	1201.39206461208	144.386288525113	2321.73471083434	1305.87022379826	136.351878875984	2295.57640262659	949.31980150434	143	2007.73054666507	1077.35061822545	148	1713.15002495081
406.286245486547	142.898119622694	779.569037313878	1289.19125869563	181.893469370443	2010.89158849896	1515.35795837078	143	2632.69587521931	1814.24750118607	159.061156926116	2883.16049234041	1343.4463562575	132.082774125277	2658.20756968813	1277.6730109438	147.998672777103	2015.77809386311	718.641536482946	130	1307.33001424731	896.126713724128	145.994022524852	1193.50347957118	929.010595191079	143.455236510338	1705.32192694164	625.016858253973	160	769.432299948291	1110.70626256235	155.29816427484	1810.79856267149	585.892932962445	148	683.648532292092	1202.12901102522	144.439425762812	2324.95664049797	1306.84171895898	136.402680146405	2298.10730764382	950.055091316394	143	2010.23288003286	1078.25454167545	148	1715.30979638471
406.437153246905	142.935497326854	780.213601694949	1289.67808910658	181.934170103957	2012.68960856539	1515.75947601866	143	2634.64797246231	1814.83643998117	159.082403674188	2885.48190689758	1344.1590875013	132.089586400323	2661.24565028459	1278.46461852538	148	2018.42090760173	719.068179015565	130	1309.13045896502	896.484820163533	145.997345554206	1194.83704599047	929.59235222343	143.435578414312	1707.69844159052	625.251502252441	160	770.212322886555	1111.12869653989	155.267452843755	1813.08948626134	586.300919675772	148	684.527438990677	1202.70132147262	144.490187564494	2327.34808580868	1307.64894665322	136.449723933338	2300.03625097813	950.749123584519	143	2012.37155115916	1079.13116894222	148	1717.28300097223
406.558465530022	142.964470975436	780.668224724194	1290.18100428982	181.964470975436	2014.32803867992	1516.07235758941	143	2636.02725509184	1815.34536570584	159.101082211157	2887.38570527901	1344.55558307839	132.107230502302	2663.31884464606	1278.91219808217	148	2020.34566874717	719.251314052673	130	1310.24319683633	896.583775908646	145.994022524852	1195.70616118755	929.825148893335	143.411008706459	1709.21202954497	625.265182058429	160	770.642432440616	1111.21660642762	155.231044329257	1814.54181505855	586.478422603051	148	685.057954306249	1203.00733510143	144.534664888585	2328.54524796843	1308.20837223738	136.48807806807	2301.11076379793	951.335837850695	143	2013.93122494764	1079.89400768552	148	1718.82702735105
406.628428083959	142.983599945141	780.860461895277	1290.59932170433	181.983599945141	2015.54066426567	1516.2195978734	143	2636.56692248733	1815.69587988367	159.113897378801	2888.64455016895	1344.54323200778	132.134161937614	2664.08056607697	1278.95233472104	148	2021.34697513858	719.14124310138	130	1310.48100393146	896.378252487931	145.982272722244	1195.9828490541	929.649659352729	143.386585297307	1709.60729702082	625.023102858413	160	770.634701591764	1110.90239261053	155.197361077	1814.85656891116	586.39551824033	148	685.1568270108	1202.97210337402	144.572039464259	2328.32352695581	1308.46633002007	136.518073130364	2301.1920767189	951.762006042389	143	2014.77207023161	1080.47225699241	148	1719.76343110697
406.63687721575	142.994022524852	780.751043883157	1290.85839624023	181.994022524852	2016.11563233897	1516.15823362028	143	2636.09330452931	1815.84725457371	159.118459717673	2889.10135324916	1344.06534876972	132.167697855495	2663.30994912607	1278.56018783503	148	2021.31457764134	718.715140794793	130	1309.74202051167	895.851327790222	145.958493500288	1195.59472254512	929.05310565865	143.365984774258	1708.73577939773	624.523041581343	160	770.143137228765	1110.16887173495	155.172337807924	1813.8508989648	586.05585222811	148	684.791351999952	1202.56004178641	144.602921365058	2326.6395732983	1308.40333094012	136.54185235232	2300.2766937514	951.994091776193	143	2014.85194012177	1080.81788207178	148	1720.00650446278
406.583784292053	142.998672777103	780.337837298688	1290.91314480369	181.998672777103	2015.92296027883	1515.87402249197	143	2634.54011009535	1815.78565376049	159.1138973788	2888.67826264955	1343.11801187483	132.204723088642	2660.97287150412	1277.75728819267	148	2020.26227596335	717.98499651204	130	1308.04092684279	895.024593080846	145.919097271995	1194.55181101605	928.077370433318	143.352228288085	1706.59984132569	623.799695912578	160	769.181602719	1109.05693695839	155.159983372839	1811.50962858262	585.500204414841	148	683.991464412836	1201.78502032458	144.628667138574	2323.64881763928	1308.04496981953	136.564330543824	2298.5112791212	952.026457785741	143	2014.23618553932	1080.91799060805	148	1719.57681231069
406.477426848001	143	779.658044966972	1290.75519984798	182	2014.93974113787	1515.38583752718	143	2631.97321956876	1815.52941528294	159.101082211157	2887.39970206358	1341.75558358102	132.241674756429	2657.22213284688	1276.61248606852	148	2018.31405130108	717.000740638406	130	1305.50587085338	893.958650630796	145.861263375233	1192.94240707827	926.816544362348	143.347311799511	1703.36431918689	622.923009371469	160	767.827773694861	1107.66391453164	155.161717680574	1807.99919029636	584.799353189343	148	682.848679851992	1200.7154463415	144.649487901632	2319.6736657325	1307.45983829056	136.589129141666	2296.15551703397	951.882726012445	143	2013.07535672711	1080.79546984561	148	1718.58593399385
406.331320774216	143	778.779244679674	1290.40624701368	182	2013.24074262062	1514.73706243045	143	2628.57813589384	1815.11710092682	159.082403674188	2885.387812316	1340.09238710759	132.275071151038	2652.38039214078	1275.24229002707	148	2015.68939425606	715.845130785298	130	1302.36609738113	892.74976088823	145.785959251402	1190.92562420453	925.399322854935	143.350748159693	1699.33700584507	621.9838558368	160	766.212620612778	1106.12318633886	155.1756711371	1803.64501850992	584.041956794506	148	681.498865310066	1199.45937809885	144.66487128038	2315.16053663763	1306.74282846439	136.61917019311	2293.54256862325	951.609325958914	143	2011.58495988167	1080.50042320008	148	1717.21517312821
406.160157096126	143	777.792584943285	1289.91246528903	182	2010.98828500009	1513.98910799741	143	2624.64365578838	1814.60239996961	159.061156926116	2882.85311950521	1338.28993785951	132.302483949133	2646.90447129665	1273.79926500032	148	2012.67929445393	714.625777227808	130	1298.9235760561	891.519788310065	145.696906459593	1188.70990575859	923.973493319301	143.362928805848	1694.93314861092	621.083205413573	160	764.505644513966	1104.58582581992	155.198671144442	1798.88899731392	583.321964225486	148	680.105236883469	1198.15526783183	144.672341489341	2310.61641055331	1306.00817431689	136.652597587337	2291.03277344301	951.270879263253	143	2010.01276429448	1080.10483050189	148	1715.68490434332
405.978753251928	143	776.79108500931	1289.33532305672	182	2008.39620005212	1513.21312186884	143	2620.50696158233	1814.04716658307	159.04072345119	2880.05341616972	1336.53410086561	132.322749529033	2641.3144736846	1272.45107854799	148	2009.60047760966	713.461160812601	130	1295.50701795738	890.397489629889	145.601280532923	1186.52059882572	922.676786018791	143.381368153005	1690.60995963345	620.311328401397	160	762.887040621407	1103.19179011158	155.226057750093	1794.21629384113	582.721543679307	148	678.83228541073	1196.94732301244	144.668043708104	2306.53970558073	1305.36798892876	136.686198700921	2288.9655083511	950.937536106102	143	2008.60810639756	1079.68850467906	148	1714.22601492256
405.802058114876	143	775.864445318324	1288.74651464452	182	2005.7116595711	1512.49190508961	143	2616.5252817189	1813.52638235216	159.023779221956	2877.27858481819	1335.01073438907	132.334325387158	2636.11965734303	1271.35962249234	148	2006.75117588632	712.466743641566	130	1292.42836967994	889.505007380412	145.50657731953	1184.56827491358	921.620453475192	143.402848528667	1686.80023094758	619.736573145567	160	761.522560351404	1102.05175767051	155.254637676111	1790.08525527625	582.300626979941	148	677.819493182812	1195.96879725552	144.650317205343	2303.35492785808	1304.92022124961	136.715696668649	2287.61569862225	950.677014464072	143	2007.59043115006	1079.33048884157	148	1713.05089081394
405.64224285826	143	775.089053702478	1288.21272484252	182	2003.18468496081	1511.8989713234	143	2613.03304708402	1813.10928350565	159.011749802608	2874.81583017096	1333.87936281179	132.337474627582	2631.76198091621	1270.65962420478	148	2004.38733753166	711.737848637888	130	1289.94471737323	888.937837564255	145.422353462056	1183.02404075509	920.875893206372	143.425697309202	1683.85777079318	619.399441433592	160	760.542010899285	1101.23691411914	155.281237201061	1786.86648298261	582.092219097633	148	677.166859470683	1195.32273688718	144.617854311069	2301.36244339133	1304.73302329812	136.735097436899	2287.16199115823	950.543624924944	143	2007.12786454399	1079.09734118569	148	1712.33009662457
405.513080944136	143	774.522339135964	1287.79814723425	182	2001.05096400287	1511.50110053423	143	2610.30390955251	1812.86308572575	159.004650252251	2872.92205610708	1333.25229845999	132.33291228871	2628.57395522923	1270.43946721917	148	2002.701737005	711.340414896068	130	1288.23336998494	888.754167861583	145.356629459467	1182.00407861224	920.476964869847	143.445070622175	1682.02024340059	619.311263383485	160	760.023771911722	1100.78015188585	155.302743769168	1784.80703414242	582.101164307668	148	676.927058198978	1195.07061496537	144.572018834035	2300.70760854311	1304.84340157857	136.741790798948	2287.67144970325	950.573281678799	143	2007.31619169524	1079.03887391047	148	1712.17350556043
405.425707915811	143	774.204472929361	1287.5565242061	182	1999.5192333682	1511.3459425211	143	2608.53089975277	1812.84253284207	159.001327222897	2871.80613527523	1333.18426141531	132.321510219514	2626.75326673394	1270.73118389768	148	2001.81295286327	711.304865191654	130	1287.38353861278	888.970734582788	145.315734984764	1181.56383768178	920.420332981152	143.46014651305	1681.38776233319	619.458309073624	160	759.991387099211	1100.68043015048	155.31818719016	1784.01088587025	582.310346413408	148	677.104138672917	1195.22708518431	144.518529125323	2301.37603152438	1305.25262393908	136.735097436899	2289.10177711747	950.779915669808	143	2008.17379062376	1079.18140007579	148	1712.62420947105
405.389559151774	143	774.159385480146	1287.52962477784	182	1998.75340255582	1511.46033326468	143	2607.82037915656	1813.08671468024	159	2871.61551940311	1333.66904830316	132.304070992064	2626.36842558994	1271.50975140358	148	2001.76988874376	711.623775841698	130	1287.39988253775	889.561403364772	145.303353094403	1181.70619097725	920.676477827615	143.46813959136	1681.92594715277	619.810071584761	160	760.413526772479	1100.91076591	155.325812738352	1784.44115829312	582.683680688354	148	677.657605154449	1195.76009213249	144.461470677034	2303.20312005752	1305.92568579537	136.715696668649	2291.30359500305	951.155330895242	143	2009.63460533955	1079.5262426312	148	1713.64925045645
405.412011150833	143	774.396833878334	1287.74850265846	182	1998.86079632682	1511.8510000059	143	2608.19705825373	1813.616792192	159	2872.43375563831	1334.64277532628	132.282564423958	2627.36896289985	1272.69909296686	148	2002.55741153703	712.255736209735	130	1288.2179389677	890.466065547441	145.320037503602	1182.3885293172	921.200548003249	143.469905316375	1683.48340460182	620.326510501409	160	761.213890079911	1101.43188831454	155.325445208234	1785.94316719243	583.178994828839	148	678.513523876535	1196.60093243101	144.407493973743	2305.91187738202	1306.80234790637	136.686198700921	2294.04638099335	951.672833349663	143	2011.56082086598	1080.04990088372	148	1715.14645223392
405.498637362211	143	774.912286144832	1288.2261644748	182	1999.87774563689	1512.50388593572	143	2609.60763441455	1814.43218155069	159	2874.27093814668	1335.99983356317	132.260615151259	2629.61082837584	1274.18804292125	148	2004.10992505064	713.135038127348	130	1289.72181617775	891.600176560587	145.363278577087	1183.53755226086	921.938334934638	143.466919233376	1685.82173607623	620.963822646992	160	762.285908370813	1102.19520940584	155.318708380821	1788.272719353	583.751562461317	148	679.576360295292	1197.65481128611	144.360148929783	2309.16388652255	1307.80273385114	136.65127036444	2297.05688079178	952.289173942017	143	2013.76760644757	1080.7069603276	148	1716.96310563786
405.649368270796	143	775.68259583076	1288.95407835378	182	2001.75421208502	1513.3858972881	143	2611.92895380386	1815.50830651582	159	2877.05577009603	1337.60605559071	132.242457804951	2632.86657226838	1275.84475136708	148.001327222897	2006.3095827979	714.179852346414	130	1291.75800569598	892.867448652999	145.428069079343	1185.0551532575	922.833498833319	143.463603932167	1688.65358318967	621.679749389962	160	763.509284830403	1103.14992339101	155.306966306357	1791.13771597225	584.363045215536	148	680.742610341543	1198.8148364683	144.322222510112	2312.61011322758	1308.83798843457	136.615847163756	2300.05338352043	952.953110894695	143	2016.05075384557	1081.43725893284	148	1718.91783733886
405.861981465266	143	776.668908576929	1289.9021236836	182.001327222897	2004.36100740541	1514.45250745406	143	2614.98829007254	1816.80441219222	159.001327222897	2880.64922227175	1339.31406045148	132.232872946109	2636.85367404791	1277.53472979655	148.004650252251	2009.00637941179	715.302488104091	130	1294.15203755134	894.1695219069	145.507816629049	1186.82910646176	923.829711705706	143.463222140223	1691.67828804419	622.434904338103	160	764.76454595136	1104.24213744833	155.292987003669	1794.23356488939	584.983577227465	148	681.911657710614	1199.97706739854	144.293334737082	2315.93538467841	1309.82160707409	136.582029591308	2302.78458596222	953.608689385037	143	2018.21820073	1082.17256949612	148	1720.82609207439
406.129713925761	143	777.811885449925	1291.02165953968	182.004650252251	2007.49235979572	1515.65328583983	143	2618.56207632597	1818.26729880935	159.004650252251	2884.83489816422	1340.98523593472	132.235523557995	2641.25461280365	1279.13881702464	148.011749802608	2012.02252940734	716.420914497479	130	1296.72336721639	895.419507006094	145.595390971154	1188.74099523991	924.867592294922	143.471648913477	1694.63100124279	623.192602059951	160	765.953921091688	1105.41104857959	155.281499058922	1797.29151555318	585.589592781514	148	683.003739899692	1201.0461757311	144.271343540155	2318.90841796267	1310.67850875962	136.552301124476	2305.07983345949	954.201267514981	143	2020.13029833509	1082.84542110404	148	1722.54009062128
406.440596417877	143	779.040096101038	1292.24624303268	182.011749802608	2010.90065289952	1516.93022056509	143	2622.40483369257	1819.83405046404	159.013077025505	2889.35180784451	1342.50518683549	132.251848255272	2645.74420785509	1280.56633819938	148.023779221956	2015.16744397633	717.466824271994	130	1299.29724211056	896.551680151579	145.684091291949	1190.67491896985	925.890895755813	143.490706183477	1697.300384519	623.920377643351	160	767.007345453075	1106.59218526877	155.275560515123	1800.09603265644	586.164846731525	148	683.960317142908	1201.95115629604	144.253163060315	2321.38951233813	1311.35659908556	136.524908123086	2306.85684855399	954.688918134028	143	2021.70923979056	1083.40064343381	148	1723.96344739812
406.780370157792	143	780.273662930672	1293.50655971935	182.023779221956	2014.31878056552	1518.23030353523	143	2626.25379132738	1821.44423261174	159.029756697104	2893.90456004156	1343.78741717471	132.279764751188	2650.01208786318	1281.75608398627	148.04072345119	2018.24683286363	718.387706690163	130	1301.71398996075	897.519927272472	145.767280714434	1192.52273537881	926.842059791923	143.519392487174	1699.55504341413	624.588831911061	160	767.889720593823	1107.71587113591	155.277717730745	1802.50949042518	586.696162744595	148	684.753821648701	1202.64386389117	144.236029897067	2323.33419190748	1311.82885652214	136.497639655438	2308.130061651	955.04192247401	143	2022.9493437546	1083.80105909084	148	1725.06545070868
407.131810797697	143	781.437109565152	1294.73762777369	182.04072345119	2017.5076702161	1519.50291300361	143	2629.86367394965	1823.04091883205	159.057123506049	2898.20934674732	1344.7827296698	132.316427464976	2653.79630714767	1282.68070514251	148.061156926116	2021.08132885277	719.1511891077	130	1303.84518325324	898.304394801415	145.840016627161	1194.1952002155	927.669439712327	143.554841464447	1701.33108951528	625.172908660755	160	768.594761862551	1108.71339841743	155.288865670224	1804.46053044272	587.169577231463	148	685.379759554918	1203.09958767814	144.218590669617	2324.77362435377	1312.09220637875	136.466831319998	2308.99206044939	955.247638206896	143	2023.90468460868	1084.02879702027	148	1725.87884601446
407.476566630652	143	782.470300532354	1295.88072746813	182.061156926116	2020.29008025118	1520.69562815445	143	2633.03115947653	1824.56233994808	159.098013173577	2902.03044624688	1345.47296343037	132.355833993091	2656.89876285691	1283.33642898837	148.082403674188	2023.51291775857	719.741414218111	130	1305.59496976644	898.902870040824	145.898663797069	1195.62468176017	928.332063450449	143.591266716738	1702.63155203397	625.655117450996	160	769.140798001181	1109.52678328877	155.30791173731	1805.94309010651	587.572984924037	148	685.854998461247	1203.32220149334	144.201487972667	2325.77484176852	1312.17332132298	136.43104539637	2309.57220041675	955.314534534342	143	2024.65913587138	1084.09595520558	148	1726.47891558736
407.79683517114	142.998672777103	783.338728242546	1296.89629146652	182.082403674188	2022.58377444464	1521.76101630187	143	2635.62237866306	1825.9529062428	159.151556599585	2905.21820126702	1345.86184643235	132.392747554151	2659.18542717445	1283.73257348319	148.101082211157	2025.41099580642	720.152863308961	130	1306.89711555084	899.321491605878	145.941549271054	1196.76126537794	928.801197777017	143.622385650322	1703.4892329304	626.023551164221	159.998672777103	769.552382240381	1110.11223683696	155.329936992768	1806.98098482014	587.893080007275	147.998672777103	686.201750273965	1203.33514372691	144.187179365787	2326.40453630954	1312.11308962893	136.389864978761	2309.99198369291	955.265413093046	143	2025.29596857306	1084.03332319546	148	1726.95587188491
408.077015269161	142.995349747749	784.034750806285	1297.76119979471	182.101082211157	2024.40202368589	1522.653584622	143	2637.58164999018	1827.15690577055	159.214712391071	2907.72005005083	1345.97434201935	132.422506951028	2660.61338435726	1283.88911568868	148.113897378801	2026.69693653403	720.389792392814	130	1307.72557558801	899.573532269933	145.970243302896	1197.58217543202	929.0648427791	143.641371675164	1703.94525514023	626.274770031514	159.995349747749	769.852334283111	1110.4486713995	155.349074244417	1807.60953340215	588.117181146492	147.995349747749	686.442106587347	1203.17135153467	144.180416847766	2326.7081299758	1311.9588449727	136.347316537112	2310.34431097394	955.131568476653	143	2025.87765522832	1083.88718752305	148	1727.39725512221
408.304372011878	142.988250197392	784.573682587383	1298.47247698104	182.113897378801	2025.84327208213	1523.33414434144	143	2638.92913165303	1828.12537248853	159.281237201061	2909.57716005649	1345.84700820283	132.441297160084	2661.20516175599	1283.83053020415	148.118459717673	2027.34018619616	720.461519091536	130	1308.08011652227	899.670909587883	145.986922974495	1198.08291899453	929.126291521663	143.645239238031	1704.0271758004	626.411347274737	159.988250197392	770.051155820842	1110.53731343523	155.361194636056	1807.85649783116	588.235467278821	147.988250197392	686.586410016759	1202.87507632151	144.183739877119	2326.69864180046	1311.76076939531	136.30817706994	2310.67281150942	954.95253395559	143	2026.43227970101	1083.71412261105	148	1727.87014371146
408.470506583152	142.976220778044	784.98704631646	1299.04410122833	182.11978694057	2027.06196763556	1523.77771797643	143	2639.75290633381	1828.82386208396	159.342669054208	2910.91017320966	1345.52444917075	132.448248562495	2661.06553903181	1283.58600768552	148.113897378801	2027.38441523883	720.381005755133	130	1307.99405331318	899.626019017682	145.994022524852	1198.28650741146	929.000266565325	143.631970509165	1703.74197551841	626.439046699467	159.976220778044	770.147554038726	1110.39951778892	155.361435504554	1807.73468982691	588.241807594377	147.976220778044	686.636004595712	1202.48671524058	144.198929168395	2326.37137964093	1311.55785559783	136.278878737303	2310.98644923058	954.76379214983	143	2026.96370667376	1083.56769333724	148	1728.42110974532
408.573605590127	142.95927654881	785.312244138531	1299.50849150908	182.119874853948	2028.22723877423	1523.98213862198	143	2640.1786249322	1829.24364309032	159.390033894874	2911.87800018997	1345.05704333022	132.445855974562	2660.3494161217	1283.19085646806	148.101082211157	2026.93273884804	720.166931185607	130	1307.52400250857	899.454145861816	145.994022524852	1198.23720305771	928.710948260497	143.604233111189	1703.08567282975	626.368398340482	159.95927654881	770.134580925983	1110.07350661526	155.350289795226	1807.25506913423	588.138162684712	147.95927654881	686.586315121459	1202.04428082872	144.223939971726	2325.72729589721	1311.38084527	136.264925280777	2311.2820847097	954.597129227231	143	2027.46534998123	1083.49448605652	148	1729.08378606961
408.619067206946	142.938843073884	785.58068566573	1299.91123015527	182.118809488912	2029.48524068729	1523.97359849148	143	2640.34087671246	1829.40864350479	159.417170204716	2912.6411309145	1344.49578942617	132.439442918267	2659.26638264092	1282.68433534838	148.082403674188	2026.15542456453	719.842561883375	130	1306.7541538397	899.173984566757	145.986922974495	1198.00673919156	928.288304148023	143.566329409194	1702.06013540164	626.214005375855	159.938843073884	770.007542698731	1109.608885826	155.329043047154	1806.43529030502	587.93626012026	147.938843073884	686.435754363798	1201.57429957687	144.253336645659	2324.79420758864	1311.24373899556	136.269489298338	2311.56374648381	954.471120493782	143	2027.9385295386	1083.52378772598	148	1729.88344424913
408.618805570281	142.917596325812	785.816984610136	1300.30801639507	182.1239101739	2030.94278137072	1523.80838688831	143	2640.37014185918	1829.38015724316	159.421820456966	2913.34287233624	1343.89038785078	132.43426917149	2658.04681040551	1282.11197115936	148.061156926116	2025.26266459659	719.437580186971	130	1305.79005044406	898.813941130588	145.971570525793	1197.68593251961	927.773025015598	143.525016716313	1700.70537829444	625.99703791117	159.917596325812	769.780163316835	1109.06672750399	155.301076744588	1805.3359710779	587.661123443254	147.917596325812	686.196272708282	1201.09682304022	144.280786768324	2323.6420585859	1311.15052055155	136.293596594943	2311.85997328508	954.393314683415	143	2028.39931387847	1083.66632201059	148	1730.84177822366
408.589846773289	142.898917788843	786.034728820588	1300.75783211642	182.143386877018	2032.64916768627	1523.56797804972	143	2640.36948390595	1829.25164510138	159.40776117263	2914.08275869755	1343.28686647459	132.435596394387	2656.93124466336	1281.51789634816	148.04072345119	2024.48477831634	718.986922974495	130	1304.75672803554	898.408569708174	145.947526746202	1197.38212435455	927.210338044431	143.486055931226	1699.10442769183	625.746239114048	159.898917788843	769.484501101953	1108.51142981218	155.269749256314	1804.05257251878	587.346616664367	147.898917788843	685.894210040792	1200.62241067898	144.298710487042	2322.38304218933	1311.09216206878	136.333915602546	2312.22563066686	954.358023965518	143	2028.88143267963	1083.91025169794	148	1731.97131400669
408.551751437505	142.8861026212	786.241266312148	1301.31007759131	182.184110328208	2034.60331039255	1523.34150344528	143	2640.42107670064	1829.12915250458	159.382848331023	2914.92627504589	1342.72767300817	132.445420393414	2656.13693426079	1280.94877613376	148.023779221956	2024.03265972652	718.530667309469	130	1303.78812654278	897.99923753686	145.915063851928	1197.20327563802	926.653564758239	143.45427488173	1697.39413120602	625.496310300246	159.8861026212	769.172231869629	1108.00805562155	155.237714077101	1802.7251222566	587.031656120672	147.886102621199	685.571902595918	1200.15875044843	144.301945603018	2321.16010580714	1311.05544937263	136.38417555392	2312.72852539589	954.350390949345	143	2029.42361737192	1084.22436489696	148	1733.26392772605
408.520345646271	142.881540282327	786.439171504999	1301.98997045467	182.248242550266	2036.75500977028	1523.20490514888	143	2640.57707903132	1829.10730857071	159.357489676815	2915.9013814845	1342.2452617129	132.463583252318	2655.83288719039	1280.44343146339	148.013077025505	2024.06593207826	718.106960669284	130	1303.01555589551	897.628016706269	145.876872874622	1197.24439647774	926.156014452317	143.433932448667	1695.74324885154	625.282620399885	159.881540282327	768.904979480822	1107.61170085761	155.207612840713	1801.51157351153	586.754031214211	147.881540282327	685.277037480819	1199.71628954385	144.290278906614	2320.12176411339	1311.02546676193	136.438639944943	2313.42339930629	954.350781027301	143	2030.05234289713	1084.56222938131	148	1734.67739678655
408.505962387232	142.886102621199	786.626521952822	1302.78478310461	182.332645089824	2039.00559515196	1523.20213408061	143	2640.86082945001	1829.24371138704	159.340371990333	2917.00225224341	1341.86067649184	132.487100616413	2656.11337719892	1280.03145784059	148.009300504501	2024.66164377365	717.751250547987	130	1302.54873105996	897.328651849673	145.837760862727	1197.56771224042	925.762166627694	143.426314141385	1694.32343379819	625.134014880346	159.887429844096	768.73671456746	1107.35693792895	155.18105449774	1800.55782657425	586.539255996945	147.886102621199	685.050408073202	1199.30914686395	144.26491563227	2319.39928831561	1310.98859722184	136.490973382363	2314.32832583622	954.339288539685	143	2030.76680789517	1084.86855946102	148	1736.12546359552
408.509829590961	142.898917788843	786.796178580261	1303.63425336706	182.427693115658	2041.21540167242	1523.3259282036	143	2641.26148576336	1829.53412580078	159.335840651079	2918.18959030722	1341.57511521816	132.512899383587	2656.9688032268	1279.72425170496	148.013077025505	2025.790280004	717.485982444704	130	1302.45152451548	897.118187939096	145.803698947011	1198.1829544556	925.496236118934	143.433033695879	1693.27697692516	625.060896178882	159.903568041094	768.699012752991	1107.24791494466	155.158638994488	1799.97059725518	586.394685257751	147.898917788843	684.917458162003	1198.95765910028	144.231830077553	2319.07522935499	1310.93463794929	136.536777859777	2315.39361098522	954.29852622672	143	2031.52627634266	1085.08606650042	148	1737.47441812185
408.523596017817	142.917596325812	786.930717314224	1304.43233342115	182.519050582022	2043.19821858097	1523.51689062639	143	2641.70976824771	1829.90712767991	159.342655985039	2919.3658468644	1341.37131785823	132.537743970579	2658.26962304945	1279.51074925901	148.023779221956	2027.30765374243	717.316762850128	130	1302.72014979746	896.989871081218	145.78045807117	1199.03258350135	925.355730992684	143.452787004715	1692.67102994667	625.051201730621	159.92934612842	768.782443156583	1107.25399610839	155.142047236267	1799.77472530952	586.306915846585	147.917596325812	684.873207604484	1198.6849688075	144.199095384734	2319.1627480252	1310.85686655437	136.57510099489	2316.49679456679	954.216161628914	143	2032.24976903892	1085.1647931025	148	1738.55593569259
408.530874853683	142.938843073884	786.997122284598	1305.04079566263	182.590897286735	2044.7307786493	1523.67093040567	143	2642.07053666058	1830.23348510511	159.354506770194	2920.36908591405	1341.20927051879	132.55790263594	2659.76046494205	1279.3523041498	148.04072345119	2028.96152919056	717.22874712744	130	1303.26433510174	896.908885075438	145.770878019502	1199.9833020096	925.30515194121	143.484555122985	1692.47112666479	625.065322498677	159.96262229584	768.929506080627	1107.31111119907	155.132166131157	1799.89817340378	586.240307896762	147.938843073884	684.878527154593	1198.50442671072	144.174478303966	2319.59412874874	1310.74349555864	136.608384890455	2317.44997347632	954.082331671236	143	2032.82702680834	1085.06569670301	148	1739.19161384658
408.50935863707	142.95927654881	786.94946160957	1305.3067274168	182.630822571776	2045.57303338538	1523.65629181402	143	2642.14663476993	1830.3462230917	159.363196004734	2920.977927846	1341.02646100905	132.570175933074	2661.069393575	1279.18283330223	148.061156926116	2030.41860991925	717.182154507491	130	1303.90032524263	896.811442808798	145.774480596023	1200.83237235051	925.280157395509	143.523173815352	1692.52107658564	625.040048405809	160	769.030344893419	1107.33085636917	155.129104600526	1800.15443387266	586.143275012559	147.95927654881	684.858479890478	1198.41343377501	144.165147574841	2320.21728035484	1310.57858750896	136.639603668036	2318.0253765779	953.89033704826	143	2033.13524580521	1084.76725462625	148	1739.22269872972
408.435105026685	142.976220778044	786.728496460212	1305.09617480327	182.630822571776	2045.48713309677	1523.34491515123	143	2641.68519725296	1830.08223297982	159.359331500779	2920.91839126082	1340.74865635419	132.573109995607	2661.75429416811	1278.91933054666	148.082403674188	2031.31085662893	717.118214978057	130	1304.36928181485	896.615897204574	145.785971669255	1201.33145024266	925.193500376816	143.565113858385	1692.56121007241	624.896534542172	160.03737770416	768.941435469454	1107.21182233175	155.134063654841	1800.26910549298	585.955358535028	147.976220778044	684.71344083333	1198.38284935301	144.175056204801	2320.8153800531	1310.33947617366	136.672860038751	2318.00377607211	953.63519028093	143	2033.06527090256	1084.26731982049	148	1738.54506766208
408.286396254944	142.988250197392	786.279383800396	1304.31292207048	182.590897286735	2044.29096468847	1522.63320235353	143	2640.43997211454	1829.30841009691	159.338089559881	2919.9308919175	1340.30031002027	132.564424285462	2661.36041348705	1278.47679080232	148.101082211157	2031.28935321863	716.967239031434	130	1304.37108070467	896.236784798782	145.796254363015	1201.22318221278	924.952204146484	143.604074643472	1692.26202077543	624.555392710429	160.07065387158	768.504029438205	1106.85881346309	155.146906347334	1799.91114046734	585.619809745237	147.988250197392	684.332248652095	1198.35998302252	144.205764161118	2321.13193712422	1310.00282607056	136.709459235525	2317.21012667438	953.314278554386	143	2032.53761254936	1083.58407831351	148	1737.1292035303
408.04991592514	142.995349747749	785.56053897135	1302.92648665572	182.516396136228	2041.88642958057	1521.47033712136	143	2638.20803792541	1827.96021056583	159.298710487042	2917.81003250031	1339.61174194698	132.544820803261	2659.49144789948	1277.78112526612	148.113897378801	2030.08097635734	716.656580986609	130	1303.61222751817	895.597078899629	145.79464292372	1200.28297701947	924.473404125107	143.635228342816	1691.29388364494	623.952798520859	160.096431958906	767.580729812789	1106.19978186563	155.1669121072	1798.76444984555	585.094095381574	147.995349747749	683.619925544872	1198.27695906489	144.252634003568	2320.92151723284	1309.54975729604	136.749112652447	2315.56174867305	952.92772888969	143	2031.52369471386	1082.75458531557	148	1735.03305145105
407.722863877269	142.998672777103	784.559491932672	1300.98126606985	182.41706538826	2038.29715783894	1519.86949987953	143	2634.89281447921	1826.05974685122	159.244642811461	2914.4682037009	1338.64152061464	132.517201902426	2655.88040459032	1276.79572480438	148.118459717673	2027.53117859885	716.129242199143	130	1301.86376333114	894.651968819313	145.77167697491	1198.36113473239	923.702191253794	143.656183008403	1689.38734439053	623.055711027556	160.112570155904	766.079852683404	1105.20120988351	155.191454359776	1796.5826601546	584.359295935664	147.998672777103	682.511584995496	1198.05947848041	144.307394021418	2319.98498870703	1308.96911794582	136.786762224725	2313.07871498309	952.47639434884	143	2030.04244153974	1081.82571911026	148	1732.38858775742
407.315885753161	143	783.29790159941	1298.58958031272	182.30316800946	2033.66562688452	1517.90676179252	143	2630.52759920273	1823.70879139028	159.184284051494	2909.95837482731	1337.38601346777	132.485345678455	2650.44062170482	1275.53227920905	148.113897378801	2023.63067284195	715.355846986058	130	1299.00803472112	893.399264216565	145.721736194996	1195.41239692063	922.625465593416	143.66574807054	1686.39877618584	621.872329169408	160.118459717673	763.979421796569	1103.87688404617	155.218590669617	1793.2502617512	583.425072751465	148	680.992816307794	1197.65101033999	144.359867413159	2318.20559149423	1308.26890683459	136.816687837942	2309.88058647831	951.966171820943	143	2028.15453033054	1080.85237186608	148	1729.37479435366
406.850635647834	143	781.82875278573	1295.9151103701	182.182956828598	2028.22945193747	1515.70858150507	143	2625.27467665499	1821.07727707615	159.125659599262	2904.47068199198	1335.8778922062	132.453824448992	2643.27218345087	1274.0482551141	148.101082211157	2018.51017766157	714.338845305284	130	1295.0574730283	891.87919671142	145.64469776343	1191.50098788783	921.272327884777	143.664962322244	1682.33374652508	620.44950677885	160.112570155904	761.328695917241	1102.28181162313	155.244736287061	1788.80187003087	582.328856713642	148	679.099910538079	1197.01932418517	144.398465475302	2315.56833458403	1307.46785080495	136.830716122659	2306.1606502769	951.402405815679	143	2025.94592650194	1079.88064824723	148	1726.18035635772
406.355712021181	143	780.225210496032	1293.13848125094	182.061156926116	2022.26747712722	1513.42507069413	143	2619.39364097283	1818.36232593582	159.076252475754	2898.29290755129	1334.18629142941	132.427981165965	2634.65692848366	1272.44160494106	148.082403674188	2012.42230352048	713.117499444539	130	1290.15925888941	890.173162652529	145.546152833331	1186.79224537143	919.713648211216	143.656200163858	1677.35492537965	618.869932828231	160.095104736009	758.243322896531	1100.51199616377	155.267452843755	1783.42424068748	581.130659385539	148	676.917461506463	1196.16634543688	144.417170204716	2312.16628750437	1306.60012836572	136.823102622551	2302.15794431556	950.792560177151	143	2023.51847251759	1078.94738449611	148	1722.97809204003
405.861272885797	143	778.561279513921	1290.42288065074	181.938843073884	2016.03160234234	1511.20116871859	143	2613.17121232677	1815.75208660477	159.040179276815	2891.73551278923	1332.39869476037	132.411119337513	2625.00358746755	1270.82763897115	148.061156926116	2005.69699363268	711.759908165755	130	1284.56635357915	888.385558476536	145.436119888913	1181.52416455452	918.050002179798	143.643644816248	1671.75114375342	617.235698529851	160.06600361933	754.881917265	1098.68233447407	155.285799539934	1777.42426565003	579.904101046184	148	674.562994687918	1195.12821359336	144.412061653641	2308.17121948169	1305.70797037966	136.791319894366	2298.09943685783	950.14757812775	143	2020.96280183988	1078.07442445525	148	1719.89005389674
405.39295665018	143	776.899156016992	1287.88657323058	181.815715948506	2009.7076398256	1509.15224097779	143	2606.87978516209	1813.38996193132	159.017727277756	2885.08639053401	1330.60560279882	132.406189468522	2614.80698163116	1269.31694047962	148.04072345119	1998.70939530882	710.34935433473	130	1278.59923758418	886.625528123431	145.325545539466	1175.97305840903	916.392694495682	143.630769809944	1665.88708318683	615.650691042098	160.025627901552	751.423594954416	1096.91113594484	155.299508653192	1771.17666963318	578.724391988629	148	672.170347869642	1193.96886885959	144.385912561428	2303.81398263891	1304.83690806849	136.73640194212	2294.18093477417	949.48202612387	143	2018.36108348536	1077.2709215749	148	1716.98917541171
404.96948050949	142.998672777103	775.273614629751	1285.59338427913	181.690854515393	2003.37305080615	1507.35374149116	143	2600.70284174679	1811.36236210487	159.004650252251	2878.53159472489	1328.88484999286	132.413032743188	2604.56250036218	1267.99354898426	148.023779221956	1991.81543747426	708.972016931717	130	1272.58822277203	884.989973323404	145.225790551206	1170.40875584044	914.850216532593	143.620648642814	1660.14439266131	614.207255776671	159.974893555147	748.040163357492	1095.30319561583	155.30869505187	1765.06822832013	577.659439156315	148	669.871243025982	1192.76857072184	144.344941708058	2299.34960315622	1304.0330651439	136.664962322244	2290.54806346427	948.817884102808	143	2015.78388829795	1076.54033838784	148	1714.30595923701
404.600147288429	142.995349747749	773.694716112058	1283.55301088065	181.565207333984	1997.02218803683	1505.83739755935	143	2594.74013862135	1809.69403093745	158.996676970646	2872.16104164003	1327.29305383444	132.428740721816	2594.72681113197	1266.90344997929	148.011749802608	1985.32783946979	707.702498215645	130	1266.83415975548	883.549227563441	145.143386877018	1165.07010062854	913.510175327753	143.614766321954	1654.8579430676	612.972719235909	159.915921369502	744.874250892014	1093.936751327	155.314233751742	1759.43501083525	576.75980346981	148	667.776777293153	1191.61297712902	144.297116065259	2295.01913096454	1303.33899551588	136.585546292278	2287.28884599154	948.184331713095	143	2013.29423885394	1075.88716389646	148	1711.84501012131
404.287678774468	142.988250197392	772.15489005154	1281.7397400256	181.44209736406	1990.60939421392	1504.60175106418	143	2589.02195022983	1808.3634354991	158.988250197392	2865.99062149298	1325.8636019416	132.449026098421	2585.66103859462	1266.05584124978	148.004650252251	1979.47984073843	706.594218585508	130	1261.56699936437	882.342917604272	145.082229950902	1160.13483137847	912.432671207881	143.614764643266	1650.27493193784	611.98549948922	159.851789147445	742.029304322176	1092.85782434271	155.31622787951	1754.52713900134	576.055409645801	148	665.9680822452	1190.58090880846	144.250091229861	2291.02299686979	1302.79169273387	136.508507930285	2284.44641341743	947.618214644075	143	2010.95145554609	1075.32197536898	148	1709.60453967937
404.028181281867	142.976220778044	770.642836524527	1280.1117310546	181.326872762363	1984.10458523274	1503.62396797601	143	2583.54906181666	1807.31938483028	158.976220778044	2860.006945962	1324.61356030205	132.467644593144	2577.62166560281	1265.42927625055	148.001327222897	1974.42442954873	705.678640131612	130	1256.93689285555	881.383582586395	145.041506499712	1155.72259389063	911.644813238333	143.617418729921	1646.52505454908	611.256506840403	159.784308119444	739.561920591946	1092.08050888695	155.313891912231	1750.47637112267	575.554398116922	148	664.488220917053	1189.73425163126	144.210717719244	2287.50931041153	1302.41927967712	136.44289553021	2282.04409088065	947.15779299648	143	2008.82088654342	1074.86189826066	148	1707.59874920007
403.815918188903	142.95927654881	769.16130359865	1278.63242443701	181.225790551206	1977.55667024348	1502.87462455364	143	2578.35253900311	1806.50211622997	158.95927654881	2854.2370460919	1323.55647169517	132.480579987976	2570.75145991898	1264.99260275337	148	1970.22902612364	704.968523097779	130.001327222897	1253.01238330933	880.667037644677	145.017727277756	1151.89370109615	911.143620641526	143.62171400785	1643.62854961934	610.774443213302	159.717194707543	737.489564448528	1091.59089527676	155.305805299799	1747.30879956974	575.246172202895	148	663.346054399824	1189.11257545336	144.183312162058	2284.56908865718	1302.23913223579	136.394007163627	2280.0974985808	946.837814811897	143	2006.96964880124	1074.52938452518	148	1705.86147851852
403.644897304054	142.938843073884	767.736131428452	1277.28898783099	181.144714099915	1971.1189537744	1502.33080197374	143	2573.52069583929	1805.86229962581	158.938843073884	2848.77700588101	1322.7086309914	132.485083820593	2565.10749900121	1264.7172944086	148	1966.8989209561	704.461484976116	130.004650252251	1249.80053577962	880.183348942457	145.005977475148	1148.66931510824	910.903407861843	143.624256026508	1641.51576184166	610.51476134118	159.652685500715	735.801215786253	1091.35884945029	155.290454529785	1744.96184277429	575.108534935662	148	662.521867438095	1188.73336460912	144.170476710474	2282.23282708283	1302.25407300716	136.364519565294	2278.61856586654	946.680906169702	143	2005.45453178343	1074.34317755034	148	1704.4395582057
403.512503043301	142.917596325812	766.421642026216	1276.10140783383	181.088207426049	1965.05039058192	1501.98563828276	143	2569.22041778628	1805.37492026667	158.918923548709	2843.81439362116	1322.09684524614	132.481934735723	2560.69165794154	1264.59347736319	148	1964.40291144952	704.152522157881	130.011749802608	1247.27463152384	879.927828567681	145.001327222897	1146.04723288533	910.888475384041	143.624256026509	1640.06753819505	610.451572446606	159.595652829015	734.470861860625	1091.34940975279	155.26797160068	1743.3228890024	575.116241486588	148	661.978279142389	1188.5938705896	144.171716019993	2280.49222620516	1302.45685196579	136.353172040349	2277.62437893684	946.695894994102	143	2004.32041029738	1074.31628177906	148	1703.38578976068
403.419039139427	142.898917788843	765.290689371291	1275.11723192543	181.059233777468	1959.67741642327	1501.84423701611	143.001327222897	2565.66959370084	1805.03682769924	158.903568041094	2839.59571713114	1321.75895524204	132.472691560837	2557.47287482364	1264.63502975814	148	1962.68867604157	704.035495131776	130.023779221956	1245.39247544863	879.905749709754	145	1144.01652428962	911.055024237586	143.620386784953	1639.1559641134	610.558278527763	159.5490612709	733.471502210374	1091.52633682415	155.238351727076	1742.27112375661	575.24295332761	148	661.674654762815	1188.67999752951	144.184377527094	2279.30686377046	1302.83167927252	136.356637721462	2277.12430995021	946.877213679708	143	2003.58777555943	1074.45329402614	148	1702.7421289245
403.368755225759	142.8861026212	764.422295479711	1274.40773332044	181.059233777468	1955.33079338641	1501.92719136241	143.005977475148	2563.09279382354	1804.87259541934	158.899179646705	2836.37397087329	1321.73144096432	132.460949486373	2555.39560468644	1264.86882060051	148	1961.6899986492	704.105198699196	130.04072345119	1244.10795592264	880.128215127746	145	1142.55942826026	911.363507434711	143.61276847767	1638.67089152517	610.814290370974	159.515271153729	732.778710298167	1091.85940053786	155.203395865745	1741.69873749148	575.468109116184	148	661.572714338508	1188.97096709081	144.20428981136	2278.62009655536	1303.35941977101	136.368644423134	2277.11714848191	947.207247879986	143	2003.25292205346	1074.74892650902	148	1702.53038004742
403.368205538788	142.881540282327	763.884820352495	1274.04759022999	181.086880203152	1952.29048020179	1502.2603288003	143.016400054859	2561.67987874475	1804.92213603784	158.909969756534	2834.36600978741	1322.04094009084	132.449476531158	2554.39864800688	1265.325257763	148	1961.34246028425	704.358902874973	130.061156926116	1243.38299808302	880.60708046675	145	1141.66179094477	911.778237565045	143.603014840658	1638.539733719	611.203740333168	159.496304925593	732.377474103592	1092.32328257133	155.166370632599	1741.53430825549	575.774255896354	148	661.643918703538	1189.44006383883	144.225964274493	2278.37080020123	1304.0161291621	136.383367018375	2277.58553828686	947.659403527264	143	2003.29292360761	1075.18838109448	148	1702.74906915236
403.423071380519	142.886102621199	763.721367751866	1274.095642134	181.140063847664	1950.72608264212	1502.86201572512	143.036856247461	2561.53169679018	1805.22309855114	158.939903097894	2833.69231535043	1322.69311566328	132.439442918267	2554.41266208966	1266.02458121975	148	1961.58362652954	704.790382881031	130.082403674188	1243.18359990231	881.344453685985	145	1141.30864085815	912.272536280627	143.592314322895	1638.73679936504	611.713386690278	159.491773586339	732.262656586732	1092.90116785355	155.13083890826	1741.74794294207	576.150002173711	148	661.874303061053	1190.05921958373	144.244642811461	2278.49891711044	1304.77812237769	136.395401244897	2278.49075383952	948.203653608497	143	2003.66792031094	1075.75069825515	148	1703.37153705743
403.536448343654	142.898917788843	763.940738795125	1274.58418824865	181.214040748598	1950.67855008296	1503.73773983713	143.069152925397	2562.63859169413	1805.80512823016	158.988504189166	2834.35564600267	1323.66506941147	132.433303060688	2555.35807302712	1266.96136813246	148.001327222897	1962.35281841652	705.388066042852	130.101082211157	1243.47708006284	882.32614632333	145.001327222897	1141.48060533259	912.828477306193	143.584575443875	1639.26921609236	612.331210001728	159.500437461952	732.435322146521	1093.57805850493	155.100130951944	1742.34007220434	576.584711937108	148	662.258765067397	1190.79973956772	144.257030264044	2278.95000286674	1305.62182376944	136.401918087245	2279.77835283112	948.810486925958	143	2004.33090984245	1076.41369844479	148	1704.35182151218
403.709319945926	142.917596325812	764.515109919181	1275.51276652386	181.303093540407	1952.05143444352	1504.87743775011	143.113630179914	2564.87056605907	1806.67801515311	159.052473253798	2836.23149902963	1324.90716095794	132.429541529216	2557.14208057092	1268.10263723819	148.004650252251	1963.58563134163	706.132427822251	130.1138973788	1244.22697947928	883.518534362082	145.004650252251	1142.15241907045	913.43403129892	143.581362686436	1640.15909492595	613.044621984852	159.519392487174	732.895003772054	1094.34039367176	155.077556980975	1743.32116033994	577.068463524045	148	662.797215060931	1191.62629047214	144.262113793577	2279.67195953412	1306.51749591062	136.401371875044	2281.37917971596	949.4495620108	143	2005.23134039857	1077.14877471457	148	1705.63094616637
403.938586619549	142.938843073884	765.38636889331	1276.84812339088	181.400046689974	1954.64068405765	1506.24978454893	143.168667045158	2568.00392672734	1807.82790407859	159.124861433113	2839.0972485039	1326.3454377982	132.426897870479	2559.64982024272	1269.38762047135	148.011749802608	1965.21198290055	706.993641257352	130.118459717673	1245.38519034909	884.869562872761	145.011749802608	1143.28361254341	914.083611580108	143.586347586913	1641.41809130126	613.839430211973	159.546437408869	733.636632016167	1095.1740064464	155.06715711894	1744.69064483001	577.590362622925	148	663.487928548242	1192.50566967426	144.260506953941	2280.61621491987	1307.4353756671	136.396990721564	2283.21731425677	950.094453989798	143	2006.31936835737	1077.92940767281	148	1707.14055544195
404.21788992741	142.95927654881	766.471893322826	1278.53001352824	181.49807293272	1958.16626646995	1507.80601917331	143.228859588786	2571.74645243868	1809.21670310125	159.196301052989	2842.65709144116	1327.88869484422	132.423564054068	2562.73080196299	1270.73319935637	148.023779221956	1967.14298856769	707.930773682548	130.1138973788	1246.88274032796	886.310913916516	145.023779221956	1144.81133500383	914.77017229855	143.599164433245	1643.02759499489	614.696553450798	159.57844674192	734.639513269029	1096.05753992988	155.069152925397	1746.41314952308	578.136719828948	148	664.318276385736	1193.39906978673	144.256486089669	2281.73336078277	1308.33998410758	136.39309732539	2285.21424716522	950.719169607568	143	2007.54749551661	1078.72540107449	148	1708.80960931018
404.538259820215	142.976220778044	767.679314819269	1280.47558709932	181.590723563449	1962.31926516803	1509.47944611292	143.287886318682	2575.79069174169	1810.7808911763	159.258246855887	2846.59935208409	1329.44102699948	132.416903005829	2566.19585057814	1272.04797109507	148.04072345119	1969.26577399146	708.897243098572	130.101082211157	1248.62764665685	887.768949871308	145.04072345119	1146.64796050094	915.482208652298	143.61799419702	1644.91602053734	615.593566050267	159.613007617855	735.86027079351	1096.96307299462	155.084656531333	1748.40075208339	578.689285718575	148	665.260576845108	1194.26849637879	144.253966033639	2282.95416600078	1309.19521368638	136.396013269906	2287.2776931748	951.299632050168	143	2008.85658129731	1079.50586591661	148	1710.5555858765
404.886211214427	142.988250197392	768.915668952612	1282.58632209362	181.673127237637	1966.79397293587	1511.19140988876	143.338539992618	2579.84456868391	1812.43755366721	159.303098881432	2850.62893111701	1330.91096356602	132.405241116599	2569.81781692209	1273.24164023054	148.061156926116	1971.44263061512	709.841765765684	130.082403674188	1250.50282693596	889.169401321453	145.061156926116	1148.67950364592	916.199691260861	143.638398417049	1646.96307504307	616.502100790566	159.647611008172	737.234409265036	1097.85307750378	155.110833148395	1750.51633033405	579.22865805381	148	666.268792484506	1195.07465914341	144.257190780219	2284.19857602048	1309.96278868868	136.410057447246	2289.30934420558	951.812143827213	143	2010.18025077915	1080.23729696204	148	1712.29240163988
405.244642811461	142.994022524852	770.101182028067	1284.7576463944	181.742715744182	1971.32919340861	1512.8543036564	143.37416275882	2583.67286121784	1814.08966686979	159.327723690344	2854.50926146153	1332.2225650319	132.388296887365	2573.35889123367	1274.23955415688	148.082403674188	1973.53244436	710.71530518745	130.061156926116	1252.37996742771	890.448181859819	145.082403674188	1150.7800426348	916.898717852311	143.654539742533	1649.01572325312	617.393009456854	159.680856175974	738.680082164442	1098.69137247652	155.14446010814	1752.59346033858	579.736461559584	148	667.285847135452	1195.78135427	144.269220199567	2285.37097742826	1310.6084475322	136.436918055062	2291.20493074956	952.23528461245	143	2011.44180734779	1080.88866794808	148	1713.93428473525
405.595456101213	142.994022524852	771.17265757627	1286.88746168408	181.799310331425	1975.71499519269	1514.38380826782	143.390033894874	2587.0957325851	1815.64118907809	159.332650430849	2858.06127698403	1333.31923365555	132.366168659424	2576.59751742764	1274.98941326004	148.101082211157	1975.40604422667	711.478198110918	130.04072345119	1254.13554542652	891.556364224757	145.101082211157	1152.82607042579	917.552762159019	143.661097818289	1650.91358494996	618.238328772186	159.711458100894	740.110726193941	1099.44357518378	155.179704557167	1754.46338282183	580.198063685463	148	668.252065625735	1196.35772263846	144.288712009681	2286.3742954983	1311.10720160608	136.47473036891	2292.87138692639	952.55316056681	143	2012.56374768951	1081.43522786806	148	1715.4074841275
