Light	Light	Light	Light	Light	Light	Light	Light	Light	Light	Light	Light	Light	Light	Light	Light	Light	Light	Light	Light	Light	Light	Light	Light	Light	Light	Light	Light	Light	Light	Light	Light	Light	Light	Light	Light	Light	Light	Light	Light	Light	Light	Light	Light	Light	Light	Light	Light
Optode1-730nm	Optode1-Ambient	Optode1-850nm	Optode2-730nm	Optode2-Ambient	Optode2-850nm	Optode3-730nm	Optode3-Ambient	Optode3-850nm	Optode4-730nm	Optode4-Ambient	Optode4-850nm	Optode5-730nm	Optode5-Ambient	Optode5-850nm	Optode6-730nm	Optode6-Ambient	Optode6-850nm	Optode7-730nm	Optode7-Ambient	Optode7-850nm	Optode8-730nm	Optode8-Ambient	Optode8-850nm	Optode9-730nm	Optode9-Ambient	Optode9-850nm	Optode10-730nm	Optode10-Ambient	Optode10-850nm	Optode11-730nm	Optode11-Ambient	Optode11-850nm	Optode12-730nm	Optode12-Ambient	Optode12-850nm	Optode13-730nm	Optode13-Ambient	Optode13-850nm	Optode14-730nm	Optode14-Ambient	Optode14-850nm	Optode15-730nm	Optode15-Ambient	Optode15-850nm	Optode16-730nm	Optode16-Ambient	Optode16-850nm
539.229662278391	142	869.792058685754	825.380139195202	222.571791034706	1030.72084426116	591.316449005944	149.028429474207	837.126316414649	1250.12486458749	158.816687837942	1525.87258342968	1207.35464550826	138.004650252251	2072.50338024867	1124.26820925606	147.126974404306	1587.68651187982	484.603703165011	134	712.983258729537	1138.32526974174	164.011749802608	1497.71535850103	634.647544276671	147.338539992618	854.703370090558	951.225100387759	179.100732439917	1174.07496480467	1144.85733615769	179.14688919188	1844.67229434662	1278.41479980958	146	1558.64300975227	942.49124565765	168.035529024564	1812.26682810362	1223.1697048832	134.841273092134	2133.6910541118	795.668156104268	200.702431650911	1519.94421190815	1074.67604555878	139.023779221956	1679.02004477304
538.938492807026	142	869.273286387213	825.686032526744	222.822289349405	1031.05965427527	591.104430937337	149.052473253798	836.807552028222	1249.45795516055	158.844596121488	1525.48190181873	1207.3989517637	138.011749802608	2072.68756570973	1123.54218195237	147.14688919188	1586.91201850509	484.730517942572	134	713.032062868586	1137.72612278501	164.023779221956	1497.04634003933	634.53760324753	147.356785252304	854.430635880918	951.199163490384	179.107919903653	1173.69025142993	1145.31384962448	179.171020884849	1844.76865484513	1278.40722676383	146	1558.09644049447	942.61430762683	168.065829896043	1812.3675878059	1222.90245725548	134.852063201963	2133.21661670947	795.703881609299	200.708409126059	1520.12583280179	1074.78146816358	139.042050674087	1679.55118933248
538.47203949917	142	868.427362727144	825.783095714573	223.046669501937	1031.16836441871	590.729852811736	149.084936148072	836.225470907243	1248.34663234486	158.863813004571	1524.58920039913	1207.23534372186	138.023779221956	2072.26291503044	1122.41980021176	147.167697855495	1585.36353976175	484.839227971575	134	712.889224351499	1136.67129878943	164.04072345119	1495.49062888689	634.374577281933	147.358540190262	853.983816772436	951.045094461465	179.09975498826	1173.03065755461	1145.76769097352	179.199095384734	1844.6942834226	1278.27817070417	146	1557.32287189995	942.623703147677	168.106530629557	1811.98829240594	1222.47001073644	134.856345924096	2132.20464898114	795.625559427321	200.702790459141	1519.86212646761	1074.79719055566	139.065807178367	1679.71346990565
537.869740918234	142	867.364448200505	825.705725936572	223.249367532765	1031.12857163371	590.225580473547	149.123127125378	835.483459929815	1246.89383523036	158.880125146052	1523.39326211646	1206.92524234424	138.04072345119	2071.36811054751	1121.01814682316	147.191995834377	1583.24177879501	484.967276496433	134	712.621407869251	1135.29522244753	164.061156926116	1493.27973266333	634.18774307788	147.345751215063	853.421007325274	950.80583798124	179.083730897085	1172.19077366205	1146.25979874068	179.23528749667	1844.56040857011	1278.07064323483	146.001327222897	1556.41863092926	942.554407203729	168.155310402913	1811.23650652327	1221.92071923904	134.856867114757	2130.78795641652	795.463698728196	200.690854515393	1519.23334691738	1074.7426130032	139.094153476797	1679.55766900937
537.177697251112	142	866.165842190859	825.499054140349	223.435336840391	1030.98720299873	589.633919850258	149.16356636017	834.654900035252	1245.22027843405	158.897590565946	1522.03989046959	1206.52470172773	138.061156926116	2070.10717051406	1119.44788055846	147.223258077322	1580.71415690489	485.147255329315	134	712.286965688974	1133.71252006392	164.082403674188	1490.59468732953	633.989715096009	147.321510219514	852.786918234876	950.490391239736	179.065807178367	1171.22661011958	1146.79366803479	179.280519569438	1844.4394444032	1277.78625455115	146.004650252251	1555.42983701958	942.421112196741	168.208592330198	1810.22488231578	1221.273924985	134.856439399695	2129.09016308051	795.23693501016	200.678132823349	1518.33065853107	1074.61063557061	139.124861433113	1679.13158741185
536.441177226001	142	864.884337159516	825.210713704868	223.607309759448	1030.76060627112	589.000332615785	149.20095130524	833.785735670867	1243.44974017408	158.917596325812	1520.61983275897	1206.07571682941	138.082403674188	2068.54290598901	1117.79913231434	147.263575340204	1577.90661710559	485.397356858999	134	711.925806896509	1132.0069693363	164.101082211157	1487.55783686752	633.777269128333	147.292559288608	852.110522513942	950.083372574867	179.052473253798	1170.16501254898	1147.33892933374	179.335037677756	1844.36748710973	1277.39223033943	146.011749802608	1554.36398276948	942.225103177445	168.261680516295	1809.06880152777	1220.52688066424	134.856439399695	2127.22499962409	794.954944136519	200.669876866091	1517.25361754331	1074.3782993606	139.15462082999	1678.48885040438
535.704026916382	142	863.550898079693	824.890823413227	223.767280714434	1030.44689311323	588.37576691775	149.231291731438	832.901475594959	1241.70660671572	158.938843073884	1519.185437954	1205.6138274318	138.102409434054	2066.72438366404	1116.14927431271	147.31460420283	1574.92071390006	485.719829412543	134	711.56148995689	1130.24471284967	164.115224601697	1484.2535666928	633.534136621095	147.266149113529	851.404827581011	949.556968594245	179.047558443912	1169.01306857114	1147.84174578678	179.396204973268	1844.34649770445	1276.84021582996	146.023779221956	1553.20562383546	941.956251158407	168.309914077449	1807.88424130819	1219.6589204349	134.856867114757	2125.30616177444	794.621839961341	200.673643087273	1516.11459018035	1074.0141375958	139.179616643789	1677.70021364144
535.002790216635	142	862.190885643143	824.585001131279	223.915470936765	1030.04607411929	587.807289367623	149.251573979557	832.022586299674	1240.10276394444	158.95927654881	1517.77289669831	1205.16559720679	138.118547631051	2064.6991512678	1114.56394199506	147.374958225196	1571.84703947893	486.099957228657	134	711.204635985323	1128.48210262485	164.123109969924	1480.74754809991	633.241748099692	147.248577865824	850.67715366413	948.886423304142	179.052473253798	1167.77994286566	1148.23944746258	179.460234426428	1844.37003859294	1276.08589631128	146.04072345119	1551.94758190751	941.608194524764	168.350289795226	1806.78333434068	1218.65809242499	134.857673146993	2123.44716216986	794.245607845265	200.694207118055	1515.03084058926	1073.49945619985	139.196301052989	1676.85472356466
534.367866304585	142	860.84205137333	824.331696551186	224.052740452684	1029.58229479494	587.334342597042	149.26026538002	831.182001161198	1238.73101666418	158.976220778044	1516.4387067695	1204.75390822031	138.130209520281	2062.54482176314	1113.10310986097	147.441555889459	1568.78922444162	486.509893493252	134	710.86189996901	1126.77912731888	164.125647181409	1477.11955733531	632.889509293639	147.245796311072	849.934945069079	948.064105328556	179.065807178367	1166.47570668546	1148.47879481076	179.523156659897	1844.41919625562	1275.1129804078	146.061156926116	1550.59355615964	941.181655634647	168.38056447426	1805.86268113415	1217.52520682004	134.856713454214	2121.75915472163	793.838576657885	200.733248372026	1514.11459789137	1072.83319399786	139.202164422313	1676.05392059846
533.819000892905	142	859.554634809663	824.156368666205	224.179616643789	1029.103649633	586.982314905778	149.257457979105	830.423901794856	1237.65355277836	158.988250197392	1515.25687713365	1204.39988247725	138.137676600757	2060.37878023874	1111.82591104676	147.510341492254	1565.86992629091	486.917763193466	134	710.542919740019	1125.19855119792	164.124861433113	1473.48016395969	632.484278798812	147.259066718626	849.19074656457	947.109850686561	179.083730897085	1165.11467556604	1148.53407169021	179.581803829806	1844.47221144128	1273.95038395262	146.082403674188	1549.16696947491	940.690181425808	168.400590864349	1805.19716949064	1216.28673533754	134.853022894742	2120.34147380594	793.419052543905	200.786416539771	1513.45889615124	1072.03862090759	139.196301052989	1675.39736363655
533.365282484205	142	858.384414045516	824.066837344957	224.298181430295	1028.67335979186	586.755330696817	149.244642811461	829.79490399505	1236.89117403268	158.995349747749	1514.31025455051	1204.11219741734	138.141805662347	2058.33682310247	1110.77295349673	147.575914268036	1563.21677249848	487.290872783908	134	710.260031593735	1123.79314624641	164.123127125378	1469.96068088342	632.049557309282	147.287619119795	848.466557492062	946.068504272905	179.101082211157	1163.71744430544	1148.40715130693	179.633175760152	1844.50808344927	1272.66855105853	146.101082211157	1547.7110483788	940.161386105823	168.41155839343	1804.82711796398	1214.99406421401	134.845117312148	2119.26882646049	793.011258960251	200.845923344385	1513.12198512044	1071.16225113035	139.179616643789	1674.96301302018
533.001787876965	142	857.377967434331	824.049944550495	224.410227695764	1028.34700973476	586.637793706082	149.224209336535	829.3286120622	1236.41770806399	158.998672777103	1513.66237461514	1203.89343894101	138.143560600305	2056.56568277675	1109.97225626344	147.63441506967	1560.95506451052	487.602989023321	134	710.029868842765	1122.59895004057	164.122313852232	1466.7063595353	631.616281596507	147.326610904502	847.78961269738	944.997214434402	179.113897378801	1162.31193286327	1148.11883673712	179.676379509067	1844.50801306523	1271.35989089295	146.113897378801	1546.28727514365	939.629082722621	168.416990919207	1804.75665334476	1213.71569776471	134.832660177739	2118.57889799079	792.63909551772	200.900061777889	1513.11760005541	1070.26164355047	139.15462082999	1674.79148064549
532.714964805288	142	856.562796943252	824.077545922566	224.517196340204	1028.15970557485	586.597988878344	149.198833526873	829.035034171801	1236.17003776051	159	1513.34040177993	1203.73461483578	138.144887823202	2055.17980998492	1109.42722546584	147.68342234925	1559.17984962476	487.836332464911	134	709.865960322035	1121.62799460711	164.124454348275	1463.84647214175	631.217569344201	147.367775499061	847.184013948025	943.959788211083	179.118459717673	1160.93570447996	1147.7050441459	179.710169626238	1844.4557373094	1270.1256310355	146.118459717673	1544.96646482653	939.132327678588	168.422070973972	1804.95648082956	1212.52546037672	134.815715948506	2118.26923579012	792.326436484157	200.94146794637	1513.41597971122	1069.39751445809	139.12618865601	1674.88010643069
532.485269264675	142	855.940830461748	824.112396318182	224.619059562056	1028.11190971639	586.595833965615	149.170932971471	828.894471469387	1236.05986199481	159	1513.32388453681	1203.62209310541	138.146455914597	2054.24215024407	1109.1254284151	147.721468996109	1557.94763618156	487.981461156611	134	709.771423838355	1120.87234181287	164.13083890826	1461.4809910027	630.871021641677	147.401783697482	846.662008131	943.006982896404	179.113897378801	1159.6326618134	1147.19663460219	179.733850886471	1844.33460831604	1269.04553731137	146.113897378801	1543.81680296348	938.707663592183	168.432519746128	1805.37897571528	1211.49044645508	134.797037411537	2118.30755344323	792.093781301298	200.971224643473	1513.96091943104	1068.62299385374	139.100130951944	1675.19316614884
532.294943209664	142	855.501710214142	824.122482181262	224.713850688827	1028.18192360265	586.59677524071	149.142326853007	828.871730511889	1236.00131126188	159	1513.56201594534	1203.5471306144	138.149426403365	2053.76194243444	1109.04868610254	147.749903207917	1557.2802772283	488.03645446644	134	709.738495531658	1120.31993590015	164.143374459164	1459.67886221295	630.579822275053	147.421820456966	846.216171682625	942.179520112375	179.101082211157	1158.45160251507	1146.62145605049	179.747365996432	1844.12556014727	1268.17236449699	146.101082211157	1542.89387879933	938.391486647752	168.45197373157	1805.96367908437	1210.66722868921	134.779919725055	2118.6286171619	791.964060730979	201.001346229444	1514.67573943367	1067.98141599339	139.082207233226	1675.6631255248
532.133648865689	142	855.231111322676	824.089372299753	224.799315893647	1028.33820250524	586.575873101495	149.114159236662	828.92752808787	1235.92651132576	159	1513.996186148	1203.50986400678	138.155315965134	2053.69759440565	1109.18520335314	147.771145218388	1557.17034162527	488.00548751471	134	709.746059817909	1119.97062028126	164.164616469636	1458.47712484052	630.326858040644	147.421820456966	845.813752803948	941.500777952207	179.082403674188	1157.43580777563	1145.99548603164	179.751663708097	1843.80173876704	1267.5257967209	146.082403674188	1542.2250367607	938.2144110782	168.481493592353	1806.65356050667	1210.09193819558	134.768708268562	2119.15553984977	791.958319655515	201.053194251121	1515.48619667332	1067.50125169061	139.077579698651	1676.21470665852
532.000394970231	142	855.118685707855	824.014234789143	224.874340400738	1028.55425437439	586.525015639316	149.087053926439	829.029822242972	1235.80136422204	159	1514.57294114453	1203.5203501523	138.163921334492	2053.98166769182	1109.53113146838	147.788084640448	1557.59648000419	487.896598421395	134	709.76506370088	1119.84056025113	164.197454552599	1457.89793846706	630.083365046489	147.403110920379	845.402571059657	940.981959025981	179.062484149013	1156.61625221782	1145.32827491889	179.748929280654	1843.33045031557	1267.09938723676	146.061156926116	1541.80580424673	938.20077109297	168.519065037702	1807.39861623753	1209.78418425865	134.767554990148	2119.80676782952	792.095453221348	201.153670819347	1516.32807252343	1067.19744806362	139.089609117999	1676.77573997455
531.906846533842	142.001327222897	855.164524970633	823.918243910279	224.941474802002	1028.81811190214	586.450533900236	149.06381137191	829.162177086074	1235.62903077268	159.001327222897	1515.25730003937	1203.59324120571	138.176643385675	2054.53319544337	1110.0906660472	147.80343708915	1558.52637259227	487.72081875671	134	709.765415679272	1119.95553623807	164.244469088175	1457.94172951093	629.819152194253	147.372425751312	844.925223210774	940.62888133698	179.045373703441	1156.00945396153	1144.62993935077	179.743607385931	1842.68496396573	1266.87343704512	146.04072345119	1541.6050002071	938.361710792498	168.560551519512	1808.14904771076	1209.73863964037	134.779130848273	2120.49591862231	792.382762910852	201.325917239123	1517.14412074906	1067.06644340683	139.119607655062	1677.27766650581
531.870711866347	142.004650252251	855.369473505234	823.83605778085	225.005977475148	1029.13215447022	586.370360480342	149.045373703441	829.318890727115	1235.44077130206	159.004650252251	1516.02576323497	1203.74022094781	138.193236822584	2055.27269699183	1110.86136412191	147.820295442833	1559.91173523053	487.490941957962	134	709.720250129226	1120.33674365019	164.308194225395	1458.58590050648	629.510769996573	147.33836070711	844.34102143479	940.440524831239	179.035529024564	1155.62709770541	1143.91151749835	179.739646706602	1841.86835410048	1266.82276291877	146.023779221956	1541.59499807096	938.690260777265	168.601257815247	1808.84747915094	1209.92940718056	134.803698947011	2121.13055817597	792.808006353248	201.579079940299	1517.87695728751	1067.08697478938	139.164610907414	1677.65485697382
531.908496517402	142.011749802608	855.734126515458	823.80204721253	225.076252475754	1029.50778395262	586.304756079763	149.035529024564	829.50392235595	1235.27632877238	159.011749802608	1516.86081677793	1203.95627377952	138.214712391071	2056.12251470686	1111.81685277874	147.83948960824	1561.67300392195	487.220938058558	134	709.611712568769	1120.97373220237	164.388029688479	1459.76781803463	629.151456672334	147.312725564648	843.642481357833	940.407457788673	179.036856247461	1155.47779682369	1143.18777546311	179.742536458673	1840.92219338618	1266.92029112309	146.011749802608	1541.76073551806	939.155374055553	168.637076756374	1809.4258195223	1210.3058113728	134.837760862727	2121.61572252218	793.332151168606	201.905218383793	1518.45949332342	1067.21712208962	139.221669355703	1677.84491287566
532.02958692216	142.023779221956	856.248718763151	823.840721387304	225.161188623826	1029.95507966899	586.270785383673	149.035529024564	829.723416459092	1235.16887656948	159.023779221956	1517.74108544162	1204.21656377134	138.24088420096	2057.00880250299	1112.89775818474	147.862323399243	1563.68833669453	486.924186882165	134	709.432857296859	1121.81536370726	164.481493592353	1461.37441903766	628.749786257788	147.30311319917	842.866876668741	940.504361883587	179.051351178588	1155.56940970774	1142.47134711562	179.755893100918	1839.92993798434	1267.13312103549	146.004650252251	1542.11358390912	939.704009154454	168.666177873053	1809.81673936635	1210.79984518761	134.876872874622	2121.87108006908	793.889480239646	202.275876558097	1518.82080461831	1067.40066162227	139.284132515354	1677.79690181717
532.228418400574	142.04072345119	856.891071291959	823.9538969201	225.265186779499	1030.4750070632	586.276491445554	149.045373703441	829.983171948878	1235.12499783622	159.04072345119	1518.63872847659	1204.47899256989	138.270016317258	2057.86575248528	1114.01173576193	147.887167986235	1565.80217337887	486.611889253775	134	709.190280512388	1122.77130444115	164.583009080793	1463.25741862607	628.330781635303	147.312725564648	842.096866135788	940.694622317215	179.078884203872	1155.91673091228	1141.77667274539	179.780370157792	1839.0184071981	1267.42946511102	146.001327222897	1542.7022673099	940.27547166269	168.689527292496	1809.96692731286	1211.3425315949	134.915063851928	2121.8445908809	794.403635870041	202.648173885847	1518.8928967505	1067.58015758705	139.345987276388	1677.47935142891
532.487980061505	142.061156926116	857.634910378597	824.125056817878	225.389356911376	1031.06085017997	586.321161429905	149.06381137191	830.290833695061	1235.1283729916	159.062484149013	1519.52883508071	1204.69194493521	138.300963344187	2058.64450440218	1115.04614723389	147.912946073561	1567.8410367923	486.294314226566	134	708.903123308521	1123.72957431575	164.684877040245	1465.25108413873	627.930605471858	147.339687930007	841.441106229449	940.932119625153	179.11925992165	1156.52760407442	1141.11515672224	179.815186891758	1838.31829293453	1267.7743380103	146.001327222897	1543.58220569415	940.809706449094	168.708767934289	1809.86347549866	1211.87277170948	134.947526746202	2121.54099916835	794.797802001607	202.972600518086	1518.63534657346	1067.70527849091	139.401024141631	1676.89827512597
532.781960868446	142.082403674188	858.461046539111	824.322590814325	225.529151290499	1031.70478433014	586.399903314089	149.088381149336	830.664263119348	1235.14823077114	159.087053926439	1520.40481687397	1204.81228367988	138.3317902135	2059.32693471893	1115.89505225537	147.937515850987	1569.65385803165	485.981226363755	134	708.606014497852	1124.5884772129	164.778859701044	1467.20687550534	627.59252752904	147.378403226459	841.016306769363	941.174253438093	179.17156235945	1157.40647090621	1140.50131523374	179.857766622592	1837.94936784116	1268.13859953433	146.005977475148	1544.80493362402	941.267816369618	168.727463626712	1809.54956593392	1212.35628565353	134.971570525793	2121.03019144283	795.019083858915	203.204693322963	1518.05617553896	1067.75121989288	139.443839178743	1676.1073637534
533.086039726597	142.101082211157	859.361910932085	824.517679375417	225.678039347749	1032.40269643447	586.510341933443	149.118809488912	831.129830545062	1235.15997264382	159.114159236662	1521.28472115928	1204.81925097491	138.361723554861	2059.93694472488	1116.48707931398	147.95927654881	1571.14609319026	485.683159039284	134	708.346465377554	1125.28522427318	164.857940345879	1469.03005477001	627.360093659649	147.420838198135	840.918922899929	941.392701917893	179.233505033862	1158.54245661185	1139.95470870876	179.904097097841	1837.98666171642	1268.5046885659	146.017727277756	1546.38693839208	941.638813290309	168.751242848668	1809.12317089889	1212.78953475792	134.986922974495	2120.43588498474	795.05061515274	203.314834395127	1517.22238410574	1067.72014025861	139.472699426924	1675.2000193004
533.383839364948	142.1138973788	860.352987299402	824.694416888908	225.829858339046	1033.16755531052	586.657652724364	149.155403878512	831.729095361871	1235.16287345167	159.143654075904	1522.22272706878	1204.72808318218	138.391615109545	2060.5325245526	1116.80622028538	147.976220778044	1572.30005969118	485.414636023319	134	708.178473609354	1125.81981761963	164.917770049098	1470.69444953662	627.275419114031	147.460672510884	841.208216287019	941.587359808743	179.30352681769	1159.91240008653	1139.50612622694	179.951897381713	1838.45501854606	1268.875453175	146.040179276815	1548.30271891252	941.941542415422	168.785020410043	1808.73661764186	1213.19529565648	134.995349747749	2119.9255779044	794.916353802197	203.293498712591	1516.2689826826	1067.63897984228	139.48807806807	1674.31038547648
533.674716318395	142.118459717673	861.471716845727	824.860421068386	225.980876592516	1034.03287644191	586.857431544247	149.200689668575	832.514625274602	1235.19135576793	159.176910446619	1523.30988118687	1204.58645746292	138.42489900511	2061.22023993553	1116.89696041812	147.989577420289	1573.19437382761	485.192814906957	134	708.161650166863	1126.25279761557	164.959820723185	1472.26206144126	627.37240956505	147.494749903367	841.894156396507	941.785864455373	179.379613215047	1161.47332875367	1139.19593925044	180.001327222897	1839.31693965713	1269.27654515183	146.077579698651	1550.47395257943	942.217080686443	168.832914169514	1808.56261462188	1213.60899243024	134.998672777103	2119.66717274883	794.675125347959	203.155819204545	1515.37618302634	1067.55037931886	139.493770413882	1673.58345208198
533.96807071424	142.1138973788	862.765787987324	825.042130942574	226.131624656556	1035.0466795721	587.128396213428	149.255957032922	833.536868247225	1235.30428200878	159.215233581732	1524.6512510356	1204.46873063186	138.46454936312	2062.1299708679	1116.85751731431	148	1573.98240446731	485.038747899849	134	708.351399526174	1126.694195027	164.988250197392	1473.86444539962	627.672072338677	147.521670969284	842.942587187882	942.041111407994	179.460775901029	1163.1799018871	1139.06863055795	180.054080093435	1840.50324987533	1269.75189786642	146.13163707441	1552.79765396705	942.516873679713	168.897945899407	1808.78017350397	1214.06635945694	135	2119.81452521701	794.409015827259	202.934859505309	1514.75319812441	1067.4994961732	139.496043067732	1673.16819614445
534.283450724682	142.101082211157	864.271296802514	825.280588734674	226.28747653407	1036.25580176809	587.4880899033	149.322222510112	834.824053591683	1235.57580951708	159.261065583996	1526.3367000653	1204.4489612401	138.513676869888	2063.3868565445	1116.80598912253	148.010422579711	1574.85513100146	484.97065193955	134	708.788422243341	1127.26416653588	165.011749802608	1475.6665329239	628.177934660715	147.544680383458	844.286972145801	942.417050429766	179.545201574119	1164.98907321603	1139.16454833345	180.113630179914	1841.92868662214	1270.35431989966	146.20201132925	1555.16913509564	942.886227752194	168.980349573596	1809.53839979954	1214.58575647813	135	2120.48055968568	794.201065316575	202.676205785781	1514.5996311947	1067.52143541516	139.502108252672	1673.1951496304
534.640870739619	142.082403674188	866.000916058332	825.618438995675	226.455977362889	1037.69213276282	587.946966193193	149.397526633943	836.371032327915	1236.07463885408	159.315122959755	1528.41863459894	1204.58920382486	138.573109857665	2065.08650722857	1116.86122586312	148.025106444853	1575.99930647641	485.003996223642	134	709.492710303767	1128.06408217495	165.040179276815	1477.82453314937	628.872303687627	147.567386512234	845.841242169571	942.969884522977	179.633463810458	1166.87085766612	1139.50712356004	180.18373987712	1843.5136637053	1271.12721155014	146.286149311173	1557.50541750346	943.353905569961	169.078884203872	1810.94221078764	1215.1649427491	135	2121.73811859532	794.119899996462	202.428485674745	1515.07824807087	1067.63524758748	139.518327122139	1673.76936285992
535.057317484451	142.061156926116	867.927025633814	826.092009246556	226.646641167195	1039.35465379098	588.502575495434	149.476820622427	838.127889025675	1236.85128548991	159.377065634167	1530.8860345079	1204.9211506993	138.640930890933	2067.25602763054	1117.11194292716	148.046700926337	1577.54623423493	485.14473435503	134.001327222897	710.455497033526	1129.15044067888	165.082229950902	1480.43217171408	629.718912636644	147.594325606118	847.520292724262	943.734104820966	179.726229879414	1168.81381555199	1140.09671067858	180.265715836247	1845.20404791049	1272.09334765332	146.379613215047	1559.76601263931	943.927991120391	169.191588749539	1813.03403963499	1215.78037494502	135	2123.61744602312	794.207229914492	202.235450337511	1516.2887306143	1067.84112788596	139.548627993617	1674.96421236645
535.541243219457	142.04072345119	869.988864752848	826.723274606179	226.867250360945	1041.20967553568	589.143568437567	149.554579606586	840.011436823933	1237.92802848697	159.445332480036	1533.67250258329	1205.44370718448	138.712785323791	2069.83562310674	1117.60718198974	148.078884203872	1579.53780260273	485.388327304361	134.004650252251	711.63664871585	1130.52462331197	165.143386877018	1483.48573600899	630.662603592447	147.628382784233	849.247368400456	944.703838175639	179.824945695083	1170.81659950692	1140.89909097025	180.359693689872	1846.96287770026	1273.23530728177	146.476826184648	1561.94563235151	944.59064042842	169.316450182652	1815.78505570283	1216.39098427653	135.001327222897	2126.10304554389	794.470728515989	202.127530433858	1518.24840686297	1068.12286151155	139.593566050267	1676.8090410541
536.090479941957	142.023779221956	872.106268211727	827.516721617905	227.123736450614	1043.20081239473	589.848551193753	149.623999730869	841.923578848054	1239.29507997942	159.517289815804	1536.67644234463	1206.13016476812	138.783960386032	2072.68237009917	1118.35780795743	148.122582951003	1581.91915514249	485.720953338845	134.011749802608	712.969818637871	1132.14643034055	165.225790551206	1486.87578140546	631.642819510527	147.670058200058	850.958962902363	945.83699304754	179.929773843481	1172.87121019656	1141.85686448367	180.462797899931	1848.76012305639	1274.50256159536	146.570717803583	1564.05378072091	945.305671798565	169.452519943772	1819.0867072761	1216.94900696636	135.004650252251	2129.12230767569	794.887858072579	202.120078342914	1520.88061782341	1068.45389025117	139.651353470644	1679.27674352045
536.690488062273	142.011749802608	874.189824676125	828.454382961906	227.41892746734	1045.25294591244	590.586235555686	149.679776355257	843.765895511993	1240.90302422315	159.589658198413	1539.77344263035	1206.9337424261	138.848443400415	2075.59259441857	1119.33857395046	148.178661909808	1584.55202091453	486.118749871449	134.023779221956	714.370603668142	1133.94459072833	165.326872762363	1490.40544415789	632.595338442956	147.717435576042	852.601584232611	947.051820314625	180.04072345119	1174.94034188796	1142.88889543834	180.570979661445	1850.54812289794	1275.80927993732	146.654334594846	1566.08408660674	946.022242903029	169.598081912755	1822.76027062266	1217.40741669458	135.011749802608	2132.54672253517	795.410677072304	202.21034945488	1524.02508763426	1068.80156114011	139.717435576042	1682.28190400261
537.31332873131	142.004650252251	876.158893340159	829.497532706688	227.752218489081	1047.29215352503	591.317684022611	149.719457712886	845.458708746956	1242.66508958373	159.659098952919	1542.84253890276	1207.80183541583	138.901986826423	2078.33092100317	1120.50266363001	148.24553445321	1587.24105031939	486.55239216634	134.042050674087	715.746549452055	1135.83669306396	165.440770141163	1493.82119910091	633.466390994712	147.767910102413	854.124890096652	948.247738604162	180.153835081695	1176.94047563346	1143.90831811025	180.679528953077	1852.24110913121	1277.054413647	146.720426127553	1567.98581132381	946.684429860227	169.749379713391	1826.55647189264	1217.7277792401	135.023779221956	2136.17245545428	795.977366174354	202.381020706432	1527.43906874625	1069.13269664001	139.783960386032	1685.66272563398
537.920820080131	142.001327222897	877.941944045816	830.58949104392	228.121717926481	1049.24472707665	591.995403206639	149.744042967078	846.9386000271	1244.4600452353	159.722796219006	1545.76340717746	1208.6779028857	138.942876493951	2080.66256013294	1121.78710821616	148.320471046923	1589.77029845427	486.989633909267	134.067134401264	717.006734827819	1137.73425789157	165.559229858837	1496.85110605514	634.214251934348	147.816949695803	855.474768017669	949.318837260256	180.264557529463	1178.73980947048	1144.83431025847	180.784766418268	1853.7091270731	1278.13885599364	146.763693393483	1569.65321341769	947.234736247714	169.899869048056	1830.17566953275	1217.88041831843	135.04072345119	2139.72967976665	796.518475077714	202.602063581445	1530.82641562896	1069.41398877946	139.842465925267	1689.19133109737
538.464321305385	142	879.472120257161	831.658805369216	228.523000092065	1051.03903310239	592.566528499041	149.757630108427	848.152359463009	1246.13792460836	159.778876856499	1548.41175525657	1209.49559078739	138.970243302896	2082.37664550596	1123.108837819	148.400046689974	1591.92918187593	487.396319041882	134.098803729047	718.067522744321	1139.53419265333	165.673127237637	1499.23645496305	634.814001775376	147.862061541382	856.590742798454	950.172867533419	180.367752781385	1180.1741070434	1145.60368578272	180.883822239205	1854.79071063846	1278.98378508173	146.781158813377	1570.93936826224	947.620862959358	170.042224397373	1833.2941167465	1217.84707571303	135.062484149013	2142.89925252461	796.966601381459	202.838811376173	1533.86677884282	1069.61473201604	139.885586771564	1692.5888360679
538.893842800682	142	880.685583218135	832.629454187332	228.951932517242	1052.60508227115	592.976829982768	149.767293132287	849.047629671601	1247.54160197423	159.828979115151	1550.65514401354	1210.181443325	138.986922974495	2083.2967558407	1124.37098695398	148.480695426204	1593.53266307276	487.737678562499	134.136611235721	718.856799916462	1141.11562764699	165.774209448794	1500.74993014334	635.253214178131	147.901196270953	857.402108299582	950.742115446329	180.456654346387	1181.06657142576	1146.17528015647	180.974893555147	1855.30645508223	1279.53710800335	146.774209448794	1571.66984090951	947.798791882701	170.168390335707	1835.59829719474	1217.61440491464	135.088381149336	2145.34479468381	797.263642740452	203.059151609095	1536.25485075394	1069.7067735321	139.907347469387	1695.55369014375
539.161213072084	142	881.519353341341	833.429272916409	229.400844856123	1053.87478334926	593.1797155611	149.779042934895	849.569708061725	1248.52544451082	159.87381134399	1552.35731679751	1210.64875732376	138.995349747749	2083.29859114785	1125.46054671711	148.560557081733	1594.44330304361	487.97727800257	134.179727274843	719.315403603942	1142.33778166032	165.856613122982	1501.22295923847	635.526314314984	147.932865598736	857.837576049211	950.990731681308	180.527884440114	1181.27218788678	1146.53060047826	181.059054254746	1855.10119565655	1279.78108883766	146.748581547242	1571.69851939906	947.73901187847	170.273604042189	1836.83044208187	1217.17712196678	135.117482266015	2146.76705070076	797.366641310268	203.238254303133	1537.74348898228	1069.6662170142	139.90574062975	1697.80933807724
539.229286314707	142	881.924325674874	834.001914548829	229.862323399243	1054.79571103479	593.141716538632	149.797809385242	849.669591048394	1248.97835856383	159.916269102915	1553.40180086778	1210.80752755783	138.998672777103	2082.32416778294	1126.26043193479	148.637852204847	1594.58389945376	488.081460181352	134.226317570127	719.403513284999	1143.055558899	165.917770049098	1500.56493087491	635.628608380383	147.957949325913	857.838480513186	950.910713285773	180.580214749047	1180.71208404349	1146.66547579713	181.137676600757	1854.08175682902	1279.71941366354	146.713306514452	1570.94245014068	947.42747810532	170.357218529586	1836.83849718736	1216.53155652948	135.150753626262	2146.96961436842	797.252641296371	203.366433958426	1538.19116095052	1069.47763948086	139.885042597189	1699.16120059812
539.07811048598	142	881.874755082649	834.314334924125	230.327139961249	1055.34042412445	592.852319934774	149.824945695083	849.317829898367	1248.84519514219	159.959299266486	1553.71671258903	1210.58014358692	139	2080.39014454841	1126.67211802341	148.712785323791	1593.95066081569	488.020275937902	134.275185256861	719.104017301138	1143.15233273778	165.958493500288	1498.77843927788	635.554695916564	147.976220778044	857.364371177159	950.520004154459	180.615286099965	1179.3836381183	1146.58864372646	181.212960927882	1852.22592910682	1279.37486628783	146.678837513898	1569.39408076076	946.870759899036	170.422506951028	1835.5956328415	1215.68256171024	135.18761264307	2145.88935216877	796.92323045306	203.447336686431	1537.57561584049	1069.13702300932	139.851789147445	1699.52219548244
538.712579648101	142	881.384225432065	834.366663725941	230.787286474299	1055.51832241119	592.329889784795	149.858194337653	848.521027359792	1248.14371067445	160.003323029354	1553.30235875874	1209.92332662188	139	2077.60186500194	1126.63768364977	148.787039072118	1592.62369305376	487.774692433089	134.324747373317	718.42825192448	1142.57110665307	165.983599945141	1495.98111410721	635.30145895385	147.988250197392	856.416122301673	949.862408851476	180.637071194152	1177.38370055217	1146.32136540986	181.287214676209	1849.61424897259	1278.78694627988	146.654810889762	1567.15237015542	946.100153125209	170.475498961751	1833.21531881592	1214.65108783121	135.227527558715	2143.62946788989	796.406833986567	203.496745709823	1536.00582360282	1068.66038542842	139.815186891758	1698.94011377881
538.162209371593	142	880.509945819742	834.193876799492	231.237007348724	1055.37953695121	591.619379567616	149.893817103856	847.331626825542	1246.96302470445	160.050454729665	1552.24105489333	1208.84259256829	139	2074.13576047402	1126.15868056185	148.862323399243	1590.75181324387	487.342167683322	134.374962962797	717.413964608404	1141.34147194159	166	1492.391115999	634.873174290902	147.995349747749	855.037225250146	948.99865941183	180.653924810234	1174.88506355078	1145.8914373431	181.36347501805	1846.41035648217	1278.00201093749	146.649095272475	1564.39229051335	945.169533124977	170.523173815352	1829.92823802132	1213.47780597438	135.269749256314	2140.43530381641	795.753672987704	203.537456091844	1533.69435195717	1068.08054575007	139.785020410043	1697.57739091064
537.480929162863	142	879.351958288814	833.860166414226	231.673127237637	1055.00948283785	590.79122814708	149.927093271276	845.850016103907	1245.45623912104	160.100410568684	1550.6923473091	1207.40051605567	139	2070.22394318973	1125.29905788082	148.940945745254	1588.53471846886	486.738722220313	134.423823874103	716.126065507392	1139.58340215958	166.016400054859	1488.30418642617	634.29108416203	148	853.318566971879	948.005659796522	180.674275175026	1172.11602021133	1145.34058870948	181.444093170517	1842.84486712597	1277.07978498335	146.665233469473	1561.34715347505	944.154261068442	170.571515573824	1826.04363759443	1212.227360527	135.311263262974	2136.6484848775	795.032745382359	203.592059541862	1530.91827292191	1067.44973630157	139.767642903526	1695.67463002137
536.736893006575	142	878.037785441214	833.447474317309	232.096431958906	1054.51330155842	589.92610401977	149.954626296559	844.21013354896	1243.80848267518	160.154882687852	1548.86408727012	1205.7104702709	139	2066.12126708225	1124.17735446716	149.025106444853	1586.18705715396	486.000386829722	134.469114401766	714.647747622892	1137.48963683998	166.041506499712	1484.05663767382	633.59319127175	148.004650252251	851.388563388755	946.966484288414	180.707266988105	1169.32086913101	1144.71806221543	181.531054376404	1839.17998437957	1276.08697093016	146.702616735854	1558.26688251317	943.140889775877	170.625054192658	1821.89552983304	1210.98128792894	135.350370467695	2132.63960951409	794.320930659959	203.678322912832	1527.96695833326	1066.827687265	139.767642903526	1693.49556000865
536.000521526292	142	876.701930508751	833.03822769128	232.511424012744	1053.99506300544	589.102917753234	149.974893555147	842.557161968317	1242.204670666	160.215233581732	1546.97198209287	1203.91386858203	139	2062.07013285112	1122.93630157454	149.116177760795	1583.90403576228	485.178573775233	134.508508068228	713.071788364644	1135.286895456	166.082229950902	1479.97483958101	632.832543768051	148.011749802608	849.400233270821	945.964635499748	180.760719731388	1166.73148138976	1144.07675289825	181.625059754879	1835.67838328912	1275.09298479204	146.755357188539	1555.39109414386	942.216792105284	170.686216680996	1817.80277443092	1209.82858869352	135.385240918955	2128.75253069717	793.692481945776	203.805297317137	1525.10488241637	1066.2733683373	139.785020410043	1691.28328734735
535.332148706045	142	875.462639472108	832.697634648179	232.924807548257	1053.53598118563	588.38430008861	149.988250197392	841.02094764504	1240.79445259566	160.283093342763	1545.19816522664	1202.16002728739	139	2058.28167795073	1121.71854300454	149.215233581732	1581.83948114007	484.333910261521	134.537992655539	711.494925112436	1133.19333062498	166.143386877018	1476.33556079088	632.073909173099	148.023779221956	847.50872158118	945.073755704927	180.84064310785	1164.53505245287	1143.47043639276	181.726229879414	1832.56558955724	1274.16524041819	146.817043171402	1552.91499347653	941.459789182969	170.755357188539	1814.02729282881	1208.85368467451	135.415669258532	2125.25217134525	793.210405550947	203.974310047249	1522.53561269727	1065.83512867567	139.816514114655	1689.21863296225
534.770762337009	142	874.407803056886	832.462227233834	233.344338182257	1053.18379546513	587.805431144224	149.995349747749	839.700086884613	1239.66605659101	160.358366466975	1543.66571406033	1200.58861142006	139	2054.91451944207	1120.64878305726	149.320471046923	1580.08874748846	483.531296934661	134.555884111807	710.007085516337	1131.39243887893	166.225790551206	1473.33459375826	631.381063965209	148.04072345119	845.854551186619	944.349952023716	180.949203602396	1162.86396897637	1142.94373882531	181.833349750662	1830.01590882005	1273.35950858664	146.878990652988	1550.9824772739	940.926450041648	170.832116003364	1810.77143695749	1208.12074688824	135.443290197194	2122.32726348966	792.919265415629	204.180435854313	1520.40647227968	1065.54112345068	139.856439399695	1687.42259923651
534.33260329374	142	873.580390107452	832.339876567384	233.779398268356	1052.94379055674	587.376222764644	149.998672777103	838.642964069728	1238.8461609912	160.440770141163	1542.41956076543	1199.31053902173	139	2052.06252483335	1119.81674835274	149.429020338555	1578.68756083179	482.830878466858	134.560295223872	708.685080457351	1130.00787127344	166.326872762363	1471.07051082989	630.810970534915	148.061156926116	844.546901358941	943.830746032891	181.085312111757	1161.79106226345	1142.53403395281	181.946575486989	1828.14137389443	1272.71905615708	146.936824549751	1549.68020771198	940.651407949644	170.917174123347	1808.17201681911	1207.67046930593	135.471229480359	2120.08587624467	792.846110632507	204.416377838001	1518.81124881631	1065.40108392445	139.898119622694	1685.95936585634
534.012783671383	142	872.996782934084	832.314016983802	234.236306606517	1052.80167775941	587.084573887119	150	837.865343362471	1238.309198449	160.529063377121	1541.46101676229	1198.40332928335	139	2049.77985376474	1119.27938373671	149.537202100069	1577.64127386351	482.283745878004	134.552824668628	707.592610104392	1129.10598976609	166.44209736406	1469.56466820019	630.404941366155	148.083730897085	843.651291477893	943.532493407063	181.245796311072	1161.33443629915	1142.26594594244	182.066706686203	1826.99056904196	1272.26710629768	146.989577420289	1549.03897845869	940.64652719829	171.011954950295	1806.31481744916	1207.51870492492	135.503254290177	2118.58447483982	793.003733310023	204.677181564136	1517.80947766614	1065.41035030123	139.935497326854	1684.8609770101
533.791538303595	142	872.651410071579	832.355426814619	234.719016790713	1052.73357693252	586.904056708121	150	837.354906031329	1237.99774299307	160.621801921228	1540.76288072579	1197.91572685657	139	2048.08814066759	1119.06960002321	149.641633533025	1576.93909061421	481.926532910639	134.53772329073	706.776721528644	1128.71330756407	166.565207333984	1468.78152863849	630.18779289777	148.105732463407	843.190192651219	943.456146024357	181.424986918488	1161.46689938559	1142.15709341097	182.196127329702	1826.56065120187	1272.01371604451	147.04072345119	1549.04289338826	940.908246910166	171.119607655062	1805.24408635016	1207.6605398683	135.54265051847	2117.84207083897	793.395762873411	204.96043004842	1517.4387088572	1065.55604250766	139.964470975436	1684.14632154769
533.644374836	142	872.537927077049	832.436490848057	235.227117774103	1052.73408425853	586.807397021794	150	837.096185046449	1237.84963936952	160.718762798939	1540.3101339036	1197.86432023598	139.001327222897	2046.99705215376	1119.19719511412	149.740261638901	1576.57570423671	481.777106507274	134.520356987127	706.2679484373	1128.8257229581	166.690854515393	1468.66059676892	630.163888130718	148.125647181409	843.141841446411	943.589402773548	181.616519581224	1162.11954608478	1142.21593728217	182.339055842254	1826.79443565062	1271.95302301857	147.095358727784	1549.62455143416	941.417828539391	171.244919520912	1804.95897222511	1208.07223098487	135.59223882737	2117.84145092402	794.01645462652	205.265186779499	1517.7068022201	1065.82311145207	139.983599945141	1683.82194267682
533.548543969158	142	872.655974270098	832.54010477805	235.757220323815	1052.82143564708	586.770474823584	150.001327222897	837.077267708143	1237.81463762018	160.820816633493	1540.11307529325	1198.23964705639	139.005977475148	2046.51865473765	1119.65482079226	149.831332954842	1576.56279624659	481.833874817804	134.507904542427	706.080581148853	1129.42261042884	166.815715948506	1469.14244992336	630.323875233733	148.143566162526	843.45147793561	943.913738579833	181.812654417874	1163.18724017088	1142.446007752	182.497893647212	1827.59208589461	1272.06927743339	147.158656149942	1550.67179034875	942.143616834637	171.390048212612	1805.40318044902	1208.71468997168	135.651353470644	2118.51437628315	794.84762970022	205.590115486782	1518.57484321157	1066.19341078787	139.994022524852	1683.86934077889
533.487048865036	142	873.002259285727	832.661037804917	236.30176631751	1053.02694388681	586.776274824468	150.004650252251	837.285607024245	1237.8580825729	160.92934612842	1540.19003291855	1199.00319148467	139.017727277756	2046.66337968277	1120.41063966307	149.917248592399	1576.91737876551	482.075521278319	134.506600037206	706.210185120671	1130.46106744824	166.940170296781	1470.17411084247	630.649071139902	148.159271082241	844.043152114099	944.405643124203	182.00692873436	1164.53701317086	1142.84790656666	182.67348942673	1828.82245855314	1272.34157372834	147.23139206267	1552.03343497162	943.039693192859	171.554400321078	1806.45480052837	1209.53332102102	135.717435576042	2119.72848821987	795.852690793279	205.926894979221	1519.93858143021	1066.645076704	139.998672777103	1684.23058745862
533.447859391699	142	873.557577808671	832.801501789586	236.849562416712	1053.37670637321	586.811870718036	150.011749802608	837.697237478787	1237.9575841662	161.044046480544	1540.54434843062	1200.08150156858	139.040179276815	2047.40194919362	1121.39780767311	149.998672777103	1577.62589324859	482.462835310501	134.52158495579	706.623601229443	1131.85951167846	167.065807178367	1471.68107030303	631.114996664474	148.173988939881	844.830035069332	945.037802136824	182.191650800738	1166.01257605548	1143.41094024438	182.862773831981	1830.32505001017	1272.74123024594	147.3112584558	1553.5269557054	944.041655941069	171.731219933348	1807.91829313618	1210.45530111325	135.785287608929	2121.27653711782	796.96855092029	206.260334286851	1521.61160976134	1067.1441171265	140	1684.78817057466
533.423770271634	142	874.267026482429	832.964900837373	237.387314253378	1053.86048771624	586.866448305876	150.023779221956	838.256603902717	1238.09398643135	161.164016792907	1541.1223461711	1201.36546680747	139.076252475754	2048.64610542109	1122.50776125445	150.076773932453	1578.62181062887	482.942435571778	134.554921511738	707.260233677144	1133.4840817612	167.196033854103	1473.54374136133	631.692820498891	148.188586570333	845.729202843618	945.773986536862	182.361775306237	1167.45848188687	1144.11376260144	183.059829703219	1831.93823616078	1273.23397938937	147.392859226238	1554.96995309922	945.070025539798	171.910413599677	1809.54175965581	1211.39574480255	135.848443400415	2122.89254161563	798.107477713011	206.568519756729	1523.33882119992	1067.64434538605	140	1685.37235946241
533.405328003506	142	875.033863919425	833.144086845131	237.896698752626	1054.41711772141	586.927698845534	150.04072345119	838.873079473147	1238.23844728086	161.284039039754	1541.80183369872	1202.70910234761	139.126986822159	2050.22059535051	1123.59015293554	150.152266990299	1579.76109416908	483.451654322897	134.604865420138	708.028772656753	1135.14111121143	167.332924706563	1475.5689135167	632.347128359045	148.20428981136	846.664527797293	946.563260466983	182.513161020252	1168.73168269847	1144.91108979482	183.255703041147	1833.5077902513	1273.77095328935	147.469731371892	1556.19641695416	946.036036982509	172.080102661971	1811.05181328613	1212.26164801099	135.901986826423	2124.28840854338	799.164403430257	206.826323420788	1524.82999590397	1068.08797847979	140	1685.78440301882
533.382583969853	142	875.727742204686	833.32028596198	238.360363007679	1054.93966151258	586.98061703852	150.062484149013	839.427375767881	1238.35602880021	161.399263641452	1542.40093440081	1203.95217597335	139.188934303745	2051.86823853442	1124.47733104021	150.224209336535	1580.83355418563	483.926788799762	134.666827891256	708.816757800069	1136.60164316146	167.475516117206	1477.49470852262	633.032966469316	148.221755231254	847.563703061557	947.339546155755	182.643912015134	1169.7182170262	1145.73661944967	183.440949426672	1834.8978917604	1274.29004555665	147.537184944615	1557.07534844229	946.855339269434	172.22982462259	1812.20767486977	1212.96500859845	135.942876493951	2125.21650238528	800.036161953469	207.014983807957	1525.8207892422	1068.41599377511	140	1685.84288417722
533.345023806837	142	876.213943898869	833.467071249441	238.761479869862	1055.29751349052	587.013426323171	150.087053926439	839.796704787322	1238.41356831904	161.502106352788	1542.72306328042	1204.945200177	139.257719836966	2053.29103296495	1125.01748677652	150.292536570932	1581.6066060905	484.311757746868	134.734546021615	709.506012583234	1137.64408922487	167.620386784953	1479.0311634659	633.69663080634	148.241042668676	848.361360614742	948.030946617291	182.754203688928	1170.34972200314	1146.50787313317	183.607297341594	1836.00545852715	1274.72417994602	147.593291774553	1557.53353510074	947.462910147131	172.353872782557	1812.85406984254	1213.44010837683	135.970243302896	2125.52693710223	800.642527580179	207.12714417925	1526.13400281686	1068.5806070714	140	1685.43338762962
533.285552136853	142	876.387435256049	833.558078999577	239.089661924672	1055.37762470135	587.019292126231	150.114159236662	839.889564563726	1238.39107045006	161.586863866668	1542.61681250567	1205.58480255556	139.327139961249	2054.22403885358	1125.11778272096	150.356267270374	1581.89372468223	484.568412822223	134.800904615266	709.99700736513	1138.11301743	167.761508386973	1479.93791192709	634.280445376222	148.26225841713	849.003611373299	948.569064650769	182.845788954621	1170.61815801166	1147.13971169643	183.749103003941	1836.78216719389	1275.00943326932	147.639065321921	1557.5704049274	947.826984772337	172.452004094136	1812.9685471116	1213.65482939442	135.986922974495	2125.22403946008	800.946762202342	207.172250683804	1525.73701651845	1068.56008394022	140.001327222897	1684.55765009803
533.205680936548	142	876.209135686957	833.580010563023	239.342729205523	1055.12629265485	587.004215681557	150.143654075904	839.67765831883	1238.29946374494	161.651082323416	1542.03427933756	1205.83629749961	139.391890036576	2054.49914143603	1124.77332034142	150.415669258532	1581.61497325244	484.680197022315	134.860472819763	710.228338924446	1137.96869512038	167.893018937706	1480.09482861044	634.732656027948	148.284132515354	849.448157231627	948.909750448883	182.921115796128	1170.56657007701	1147.5667912409	183.863992290079	1837.22487682998	1275.10655019605	147.677794645342	1557.24487106142	947.96000795286	172.528687413437	1812.65429317173	1213.62663485139	135.995349747749	2124.45235277197	800.9692233817	207.175054304917	1524.74483031694	1068.36981924559	140.004650252251	1683.32860550494
533.118929156957	142	875.722948379185	833.540636041951	239.528063366483	1054.5731808311	586.985274635412	150.176910446619	839.20962522888	1238.18240398554	161.694373985709	1541.06047249866	1205.7470811868	139.448917901102	2054.11166914944	1124.07800827566	150.472263845776	1580.84190127402	484.6571140125	134.90908637678	710.192569702666	1137.30559576753	168.012017001494	1479.56259382274	635.019769331891	148.305398214961	849.680473662172	949.048550758696	182.982272722244	1170.28738326201	1147.75975464662	183.952516025141	1837.3888382884	1275.01563160342	147.713754513453	1556.67498871019	947.914766621323	172.591168433964	1812.13268886527	1213.41960007771	135.998672777103	2123.49050939542	800.784469187664	207.170418370404	1523.4141109589	1068.06353504774	140.013077025505	1681.97056923735
533.047216775973	142	875.046943556455	833.468254184417	239.660721854605	1053.83144476487	586.986764540407	150.215233581732	838.600812121012	1238.10525963082	161.721468996109	1539.89648133254	1205.42182491478	139.49807293272	2053.22332035682	1123.19605856703	150.527736154224	1579.78838779597	484.52903178115	134.946199523305	709.937897004053	1136.32502094053	168.118459717673	1478.57844607725	635.133308898654	148.323265157472	849.71478121935	949.023174888756	183.031400229013	1169.89633665832	1147.73524595642	184.018323203508	1837.37091257116	1274.77933540976	147.750701374067	1556.00579844312	947.775504458032	172.646967845602	1811.6669270501	1213.13239617127	136	2122.65339901013	800.506567823548	207.194018306852	1522.06777977231	1067.72305972135	140.028429474207	1680.74690474021
533.018360614078	142	874.343443584473	833.406564025843	239.761932627265	1053.06962518728	587.03361958718	150.261065583996	838.000970833286	1238.14067890817	161.738951571458	1538.8075866577	1204.99756329987	139.54185235232	2052.12673750022	1122.31876226934	150.584330741468	1578.75828159822	484.339218490723	134.971570525793	709.555897433353	1135.27915808144	168.215777756107	1477.49516120531	635.093688129969	148.3370413503	849.595666128788	948.906532262218	183.069326648683	1169.50359774941	1147.55140908996	184.064676396433	1837.28271223149	1274.47573055426	147.790621921506	1555.37707610251	947.63761199393	172.701573867298	1811.49446501429	1212.87805527272	136	2122.20850382436	800.26168109004	207.271575287827	1521.01765908476	1067.44284040424	140.052473253798	1679.89202016534
533.05327747569	142	873.770826957206	833.401928091331	239.85328169369	1052.46486418588	587.140496843473	150.313795736858	837.547568879884	1238.34042236107	161.754477964643	1538.03963611562	1204.60214729293	139.584330741468	2051.15852098377	1121.61077293198	150.643732729626	1578.05229877407	484.133012386347	134.986922974495	709.158824819944	1134.39346874889	168.309145484607	1476.66908819414	634.944255734263	148.344941708058	849.386464922035	948.782295710478	183.096431958906	1169.18504474063	1147.29132420803	184.095104736009	1837.22642471666	1274.19561719479	147.833110610476	1554.88959436228	947.583017520625	172.756998020674	1811.75536822924	1212.7517867969	136	2122.29562121556	800.157007850754	207.413936199366	1520.48383726204	1067.303039663	140.084936148072	1679.54445057646
533.159865349272	142	873.433257715776	833.487367361672	239.953917954304	1052.14714581517	587.305173326481	150.371088159019	837.318832069487	1238.71286036659	161.774480596023	1537.73598727669	1204.31528187844	139.629616531531	2050.59397779815	1121.15847572625	150.706136206171	1577.87038487881	483.948483853642	134.995349747749	708.848634448921	1133.79371545923	168.401971738507	1476.33763167256	634.737881296418	148.345987276388	849.152210124941	948.720314219152	183.113897378801	1168.95516828421	1147.03543010208	184.112570155904	1837.25786689159	1274.01492340667	147.875545651725	1554.57462406507	947.662860930041	172.812654417874	1812.46077623446	1212.81053942265	136	2122.88749004737	800.258184242932	207.613913715285	1520.54901922562	1067.35338823318	140.123127125378	1679.71009781528
533.326244451382	142	873.347675326294	833.671784977337	240.077592116505	1052.1579698292	587.505586819456	150.42760520228	837.305527228265	1239.21414573794	161.802371724114	1537.88649649985	1204.1519193207	139.680327119226	2050.55498068091	1120.94879176447	150.769813188318	1578.23781733464	483.809848315154	134.998672777103	708.691948134187	1133.46759288924	168.494622369235	1476.52043795055	634.526268426445	148.340214948927	848.939060632814	948.751347812842	183.124437192821	1168.76103295491	1146.8410957398	184.118459717673	1837.36811088821	1273.97123390585	147.915063851928	1554.38525544733	947.882036253227	172.865123072014	1813.4841145076	1213.05517426513	136	2123.79077762522	800.574782421007	207.851714678392	1521.14303800665	1067.59740814335	140.162239137273	1680.25846618342
533.521069106154	142	873.441790124423	833.936203700876	240.229136298236	1052.44277936169	587.701624591303	150.475783316092	837.415538579898	1239.75136638918	161.837760862727	1538.32928201972	1204.06376681616	139.73523732285	2050.96626438996	1120.87613701764	150.831332954842	1578.98670970899	483.723160703892	135	708.702096642159	1133.27221691933	168.582226032271	1476.99659884742	634.340879851103	148.327139961249	848.760511016732	948.851634839098	183.130297433659	1168.49178836704	1146.71897311342	184.113897378801	1837.48372482394	1274.0466371863	147.947526746202	1554.20565931099	948.200398710979	172.911740822574	1814.60958409545	1213.43138925103	136.001327222897	2124.71275868705	801.063912546829	208.101708218273	1522.08326985006	1067.99387731868	140.197628275886	1680.97223102597
533.69932352946	142	873.568528004143	834.23762431885	240.406949799368	1052.85936850253	587.846243083906	150.508755470408	837.492623024587	1240.20570574933	161.876872874622	1538.78685758519	1203.96180004901	139.789732713493	2051.56408343468	1120.78034291803	150.886369820086	1579.78958806161	483.67962056242	135	708.835634684423	1132.98487091764	168.656727182778	1477.34901419211	634.185563633592	148.308067701718	848.59312831478	948.946493273336	183.136611235721	1168.00866422868	1146.62796549223	184.101082211157	1837.4825917138	1274.16579156159	147.970243302896	1553.8837971885	948.544469121506	172.950849775556	1815.59074837473	1213.84650339295	136.004650252251	2125.3407214023	801.646462152529	208.340731587821	1523.13128869267	1068.46824516286	140.22419218108	1681.60880857152
533.816324004371	142	873.554503831809	834.52324946248	240.604181359812	1053.22681652466	587.896333190742	150.521689551049	837.366025567864	1240.4665154057	161.916391074825	1538.95153702033	1203.74657797636	139.83536637491	2051.98033882078	1120.49464916659	150.930847074603	1580.25866622127	483.659977780906	135	709.009730029906	1132.37105166905	168.709706775648	1477.09081295478	634.037439755359	148.285887453312	848.385363387508	948.930000738751	183.146906347334	1167.18647305256	1146.48711866745	184.082403674188	1837.23067366722	1274.21669131701	147.982272722244	1553.27468047861	948.826757753367	172.983320328401	1816.21559621658	1214.1959188154	136.011749802608	2125.43341274086	802.230685046553	208.554396372735	1524.06159992916	1068.93480272859	140.240871783106	1681.97154067506
533.836347523115	142	873.249592708619	834.746704584189	240.811270843942	1053.37674393587	587.825289993203	150.513405722659	836.899254333538	1240.4594749243	161.952176998453	1538.57173629945	1203.34640728058	139.863134772505	2051.8400887499	1119.90167410089	150.963143752539	1580.04578451724	483.643039379932	135	709.123278634241	1131.26682835171	168.734276553074	1475.80056007794	633.855805446268	148.262390769066	848.073981144994	948.695169409192	183.164364526319	1165.94607818684	1146.20018161421	184.061156926116	1836.61543651415	1274.08082630644	147.983599945141	1552.27622032729	948.965007700142	173.010702196451	1816.35405128781	1214.3872827448	136.023779221956	2124.88049515608	802.732858406288	208.73780363407	1524.71191685645	1069.31366206676	140.247971403037	1681.95522558938
533.743834670938	142	872.565499888361	834.881978277243	241.020791508161	1053.19915832854	587.628889685981	150.4875331187	836.024862331803	1240.16923867791	161.983320328401	1537.51763335544	1202.73567826455	139.866624018197	2050.87240114096	1118.96327817427	150.983599945141	1578.94355978736	483.611017152424	135	709.088517361881	1129.62355376089	168.73016296825	1473.25092559984	633.597838151209	148.239556978063	847.607291205627	948.166902094751	183.190261526642	1164.28024314736	1145.68334146981	184.04072345119	1835.5765984082	1273.66444827459	147.974893555147	1550.85737400724	948.90256132079	173.036073198939	1815.97211402278	1214.36528488961	136.04072345119	2123.71888616097	803.09290311592	208.893798097309	1525.00329187679	1069.55192959159	140.248774306787	1681.55602784817
533.546915626738	142	871.499536186422	834.930746571801	241.230620088965	1052.66784627444	587.328068058057	150.452711647133	834.761807021405	1239.64333870735	162.012029419348	1535.80871788492	1201.94000721295	139.843256480737	2048.98265929449	1117.725624338	150.994022524852	1576.93342251967	483.553779402609	135	708.853496053642	1127.51969182345	168.700773663322	1469.47228701009	633.234637942726	148.219014909909	846.967468349274	947.323929841043	183.22366516216	1162.26099679743	1144.88965280347	184.023779221956	1834.12834499873	1272.92298174335	147.95927654881	1549.07090899407	948.613735923145	173.059829703219	1815.12179829938	1214.11884635502	136.061156926116	2122.1107812797	803.281356639525	209.029042555413	1524.93676522907	1069.62437316111	140.247175285345	1680.85305853545
533.273678511242	142	870.129914920758	834.918894627617	241.44209736406	1051.83911535733	586.96134682432	150.41646186246	833.206965562662	1238.97111447582	162.04072345119	1533.59819088426	1201.02396794009	139.79798867075	2046.27520843802	1116.29991172633	150.998672777103	1574.18372535199	483.471133063841	135	708.416998874396	1125.13373754533	168.656459983892	1464.7482973829	632.763697707136	148.201213163101	846.179107145633	946.205854240881	183.263585640026	1160.0235103803	1143.82666975135	184.011749802608	1832.35559473718	1271.87372746325	147.938843073884	1547.03569559248	948.106707312046	173.082403674188	1813.91321850727	1213.67806401417	136.082403674188	2120.2868344491	803.295656071472	209.149091353844	1524.56986852122	1069.53440993827	140.246254250756	1679.96599274355
532.963300793945	142	868.596581419344	834.885718188004	241.660132784485	1050.83356976152	586.57272542447	150.388029688479	831.510584458003	1238.25648798294	162.072906728724	1531.12854645653	1200.0674246903	139.73895713368	2043.02015067174	1114.82366326956	151	1570.99606367326	483.369504244574	135	707.82460166885	1122.69278071412	168.608109963424	1459.54539751334	632.210596536593	148.185682032315	845.302039089249	944.90709162652	183.307487497018	1157.73341027908	1142.55123743332	184.004650252251	1830.38471089121	1270.5876242415	147.917596325812	1544.90387915229	947.417410559793	173.101082211157	1812.4778844999	1213.1026592997	136.101082211157	2118.48320539648	803.155296766216	209.257457979105	1523.98341236128	1069.30473558743	140.247175285345	1679.00983974714
532.662298821657	142	867.069986275916	834.877640600707	241.892530529084	1049.80143090893	586.206683647861	150.371898732391	829.843401506903	1237.59582259242	162.112160371292	1528.66991846763	1199.15267696825	139.677510291001	2039.60278082615	1113.43269144719	151	1567.74170926872	483.260635781482	135	707.161444919466	1120.42783646891	168.567482153757	1454.42700788713	631.626099099041	148.173587417265	844.427149663093	943.560492754708	183.353291974432	1155.57781477655	1141.16600739628	184.002654445794	1828.38168253996	1269.1847086013	147.898917788843	1542.85622454278	946.605321597881	173.115224601697	1810.95330718405	1212.47065566581	136.113897378801	2116.90163352491	802.89485395178	209.355816837637	1523.2665902428	1068.97043708893	140.250101529684	1678.07358648249
532.411949099634	142	865.71926276646	834.933930081852	242.143386877018	1048.88848118969	585.899616608097	150.370116269583	828.364643569131	1237.05472080983	162.159532940102	1526.46355635072	1198.34885095387	139.62583724118	2036.45114230397	1112.23578915178	151.001327222897	1564.79449903122	483.159375247381	135.001327222897	706.533760550506	1118.53467743097	168.544760789888	1449.95906343282	631.075977318119	148.16743329786	843.655450944212	942.319925849195	183.40137391287	1153.74343484206	1139.79935174121	184.005977475148	1826.5233629857	1267.81310091995	147.886102621199	1541.07689421243	945.750757942787	173.124437192821	1809.4753580138	1211.87188679915	136.11978694057	2115.6909629431	802.562748676937	209.446740760679	1522.50879955649	1068.57899334294	140.253948878184	1677.21315014827
532.24987359246	142	864.687317810127	835.086727706442	242.416817195921	1048.21457925948	585.678783299961	150.381721448639	827.200390917001	1236.67292052699	162.216560804629	1524.68894283111	1197.71353131593	139.59258859861	2033.95403398533	1111.31169340451	151.005977475148	1562.46745161691	483.083505422422	135.004650252251	706.047754260969	1117.15964466774	168.546355073729	1446.61816028373	630.629074333753	148.17128274271	843.081282409476	941.335647733536	183.455179196739	1152.40804612396	1138.58859515397	184.017727277756	1824.98473905598	1266.62951713443	147.881540282327	1539.74454890695	944.945853381556	173.131624656556	1808.19427294224	1211.39638812548	136.119874853948	2114.97034975215	802.21642196988	209.536327161002	1521.81351507096	1068.18326471546	140.258599060862	1676.47715503068
532.206874521608	142	864.087180225656	835.361495351598	242.714223952737	1047.86794282023	585.566200460166	150.402968196711	826.440008101829	1236.47121874727	162.283093342763	1523.46635211104	1197.29671760849	139.584157018181	2032.41724171991	1110.71655589569	151.017727277756	1560.99303100855	483.052743552345	135.013077025505	705.794589541033	1116.4038333437	168.576783413306	1444.75451774832	630.348103324173	148.189717352267	842.783437420802	940.74301100287	183.519654345035	1151.73343777511	1137.6635923468	184.041506499712	1823.9284244989	1265.78809178319	147.886102621199	1539.02637619893	944.293760675819	173.143915933765	1807.26908443461	1211.13678111603	136.118809488912	2114.8352762279	801.923509824101	209.636735088435	1521.29721565584	1067.8455568167	140.265698680792	1675.9177207836
532.304180004246	142	863.98856067793	835.771803967166	243.035454555511	1047.90147698581	585.575676637464	150.431802252447	826.133783579477	1236.45643670399	162.358366466975	1522.85623677066	1197.14551605735	139.601534524698	2032.03806119474	1110.49444898451	151.041506499712	1560.51617090415	483.088913098229	135.028429474207	705.84091705047	1116.33255413192	168.637680519388	1444.56919359285	630.28261819573	148.227117774103	842.813465700037	940.642509876946	183.601534524698	1151.84258349789	1137.13110360228	184.083557173799	1823.48359035786	1265.41479682931	147.90024501174	1539.0519271427	943.891889186513	173.169283877341	1806.86854820227	1211.17135138687	136.1239101739	2115.37474680453	801.753472512294	209.76212456784	1521.09038271202	1067.62734012885	140.279858226787	1675.60594779272
532.555759160747	142.001327222897	864.425462878873	836.325559931211	243.382071219878	1048.34346475412	585.717746739981	150.466667141486	826.302522683894	1236.63877950391	162.440770141163	1522.88368428877	1197.29203269698	139.641459809738	2032.87024872858	1110.67106134794	151.082229950902	1561.07778954103	483.210010428192	135.052473253798	706.2163854394	1116.96882945179	168.728775594039	1446.09163772694	630.458553890465	148.285192539364	843.19215076112	941.083185089132	183.705962482884	1152.79633594369	1137.05664919027	184.149364352166	1823.72512894985	1265.58508101885	147.922246578062	1539.8838686112	943.814678121487	173.217620828639	1807.11995373266	1211.54699914068	136.143386877018	2116.62648187683	801.763571231737	209.92735907748	1521.30178289551	1067.57443454965	140.305626014291	1675.5991047638
532.961122901472	142.004650252251	865.390289613404	837.018402975353	243.754947403927	1049.19648075065	585.991178752133	150.507816629049	826.938807765225	1237.01966774307	162.527736154224	1523.54283044571	1197.75257006393	139.697256230832	2034.83174328409	1111.25265425105	151.143386877018	1562.61638997181	483.42825463786	135.084936148072	706.912291503077	1118.28959012229	168.847592472434	1449.17890871224	630.877115487308	148.362139929066	843.906547405889	942.04743600723	183.834665632703	1154.5607646037	1137.44878207511	184.242190606065	1824.65066680889	1266.30245419879	147.950592876492	1541.48668056165	944.09481041969	173.294943476603	1808.07480801932	1212.26361425114	136.182783105311	2118.54744060653	801.986302356662	210.140217830157	1521.98566945887	1067.70435462662	140.347590453688	1675.91534179712
533.502277949145	142.011749802608	866.823922152174	837.828634861873	244.155136679626	1050.42858586577	586.380935986349	150.555465686113	827.997754050649	1237.58545754538	162.61582444608	1524.77735887932	1198.5033733468	139.761770244834	2037.70298612888	1112.20134858592	151.225790551206	1564.95740941368	483.742014212716	135.123127125378	707.879156452909	1120.20097812239	168.989310221403	1453.5138550552	631.510328795924	148.451104807497	844.904333338247	943.448888509601	183.98357912735	1156.98852554705	1138.25936384233	184.362401786927	1826.16535731023	1267.49323749613	147.983055770766	1543.70649471081	944.710086197298	173.403125238117	1809.6581514754	1213.25815081762	136.243592298015	2120.96008813823	802.415544402007	210.397945929119	1523.09789449518	1067.99488033114	140.407158658185	1676.49038163085
534.141334343145	142.023779221956	868.613592266173	838.715988616428	244.582829795284	1051.96443865363	586.854132222733	150.610917364339	829.396710345359	1238.29346007351	162.701035521183	1526.47284980209	1199.47377310901	139.82731556534	2041.13832076013	1113.41980391357	151.326872762363	1567.80950528489	484.132506047275	135.162239137273	709.025270203949	1122.52352454086	169.146906347334	1458.61221915051	632.30081079427	148.542917717356	846.094144943958	945.134002333523	184.143560600305	1159.81678035605	1139.37779316081	184.505272814309	1828.0731977761	1269.00374099583	148.016944229234	1546.26812621483	945.574972677257	173.538783314741	1811.64935408185	1214.40161346325	136.322222510112	2123.53373028737	802.996853147595	210.684889458099	1524.47546281018	1068.37698201991	140.481493592353	1677.1578737952
534.81711855871	142.04072345119	870.590542269006	839.616676944532	245.033008968534	1053.6772241801	587.357236603295	150.672600218717	831.004121511234	1239.05938270099	162.779310133782	1528.43669720322	1200.54098378785	139.889166851605	2044.69120373407	1114.74454045097	151.440770141163	1570.77476117481	484.559982825994	135.196301052989	710.224554694411	1124.98894651877	169.311665540638	1463.85002900635	633.163971234776	148.626110268326	847.3450490652	946.894504780987	184.300459912404	1162.68820862484	1140.64500197654	184.661110236143	1830.09876758092	1270.61704104202	148.049407123508	1548.80187790107	946.551901125875	173.691657488716	1813.69675220014	1215.51028593323	136.40989136885	2125.80436245902	803.633854367326	210.97648797693	1525.84388085062	1068.74639676117	140.56255288819	1677.66160450911
535.450461986405	142.061156926116	872.537344094416	840.44508043701	245.495949592132	1055.38912892821	587.821123205359	150.737869050968	832.645393017983	1239.75541296595	162.847116177518	1530.39877512266	1201.53875882401	139.944895018084	2047.86467917886	1115.95466287539	151.559229858837	1573.38884788816	484.967321199806	135.21954192883	711.326061031378	1127.25934492327	169.47163926497	1468.53182234115	633.995108245689	148.691028238679	848.495919504111	948.4991371281	184.44016637815	1165.19901359408	1141.87126521164	184.818015060839	1831.91735806794	1272.08445088345	148.079080644835	1550.89370134773	947.470586754959	173.848443400415	1815.37525054857	1216.37440389914	136.496054408587	2127.24347339584	804.205611109317	211.244359246379	1526.86477338873	1068.98200391207	140.640830559702	1677.70171057024
535.955781526751	142.082403674188	874.214098382998	841.10687708699	245.957166277391	1056.88930531405	588.170963357106	150.802231838163	834.118336918607	1240.22812372927	162.901986826423	1532.04057114587	1202.28653573348	139.994022524852	2050.16926940381	1116.8081510749	151.673127237637	1575.17942636969	485.28651588578	135.227794757601	712.169741907152	1128.97734765882	169.616003731588	1471.97604785767	634.681476549983	148.733485997604	849.366857791763	949.72495072388	184.548846612649	1166.95687698127	1142.8659919341	184.962345586389	1833.1971050267	1273.1634225526	148.10440524051	1552.14505330191	948.154567880715	173.994289723739	1816.25236879821	1216.78777365135	136.569919637434	2127.34530705415	804.585371140488	211.464177663462	1527.19232747434	1068.96962585227	140.704625749423	1676.99718521624
536.255990911519	142.101082211157	875.397340584687	841.515369990815	246.398115704063	1057.9697535997	588.341899225235	150.860472819763	835.224869470607	1240.32963431968	162.942876493951	1533.04853935098	1202.62123471539	140.036050481263	2051.1964658806	1117.08605981787	151.774209448794	1575.74790091373	485.450619343496	135.21954192883	712.606312794116	1129.83005135028	169.732702949082	1473.62855002315	635.116686393124	148.75244875097	849.788073802067	950.393960128715	184.617465929531	1167.65346656358	1143.46526820884	185.083342515547	1833.66379848887	1273.65957854102	148.125647181409	1552.24893383407	948.453840182996	174.116878503002	1815.97874403122	1216.58944823882	136.624671373342	2125.73576896057	804.669311377868	211.619394640401	1526.54997872321	1068.63036973727	140.745779974587	1675.3602707006
536.298255067197	142.1138973788	875.914172012127	841.609281709292	246.799899401545	1058.46218401725	588.291935658072	150.90908637678	835.804151677933	1239.9506453973	162.970243302896	1533.17176814753	1202.43559597861	140.07065387158	2050.7006597157	1116.64631246172	151.855285900085	1574.85204276979	485.40577746615	135.196301052989	712.523688633808	1129.61793702152	169.81510662327	1473.16938551401	635.22101763279	148.752085910562	849.628966804452	950.409775243166	184.642851991124	1167.12178776485	1143.56287952333	185.173906367528	1833.14600604046	1273.46497341384	148.142238939629	1551.05044711237	948.269525707406	174.206721732816	1814.34877986829	1215.69445817701	136.656727182778	2122.24694914084	804.395146165517	211.704086086067	1524.7837528098	1067.93888603431	140.759564331893	1672.74121821898
536.065548061542	142.118459717673	875.672609259465	841.368170648058	247.147218708004	1058.26977893746	588.011682626358	150.946199523305	835.756904182061	1239.05152436895	162.986922974495	1532.26986644342	1201.70140632846	140.096431958906	2048.64096661655	1115.45583335405	151.913119796848	1572.45654313751	485.124182162281	135.16356636017	711.864860024278	1128.29523734217	169.86064654305	1470.57058813723	634.956548016705	148.737536435183	848.827984769369	949.769847953809	184.626970485675	1165.37078221357	1143.12805987562	185.231574047952	1831.61351000049	1272.57633442177	148.15462082999	1548.58065555632	947.570228244591	174.260439103306	1811.33821559852	1214.11285103521	136.66593421168	2116.96328300055	803.753502944186	211.722261362824	1521.89374061862	1066.93229197402	140.747910170807	1669.24926179871
535.581291714368	142.1138973788	874.68394585363	840.819446763267	247.428455909065	1057.39270369473	587.527272618642	150.970243302896	835.070226403586	1237.67456311545	162.995349747749	1530.35299842943	1200.47332517078	140.112570155904	2045.19454417867	1113.59895500437	151.945416474783	1568.74327408235	484.609794250363	135.127777377629	710.642350764864	1125.97759227175	169.870902906422	1466.09774292331	634.335453110693	148.714386601206	847.407187250792	948.563225067296	184.577553062344	1162.57394648678	1142.21031294547	185.258409238318	1829.17453364118	1271.09133701363	148.162239137273	1545.043166782	946.393037423868	174.27965598639	1807.09897170291	1211.94458662098	136.656983478418	2110.20227550821	802.78606732821	211.683476404493	1518.02823749578	1065.69687808574	140.71557943434	1665.12402122415
534.902196181881	142.101082211157	873.058111958317	840.028439289041	247.639845270782	1055.92666682448	586.890979384363	150.982272722244	833.816901078951	1235.9332297654	162.998672777103	1527.57974958252	1198.87971937684	140.118459717673	2040.72468533985	1111.26256395689	151.952516025141	1564.0781935023	483.898441301556	135.09668595068	708.939444105715	1122.92159165626	169.854495344615	1460.25548056584	633.419454099711	148.685412952625	845.471375904548	946.949781967097	184.505446537596	1159.02914801664	1140.92779011795	185.259912084386	1826.04848661926	1269.18538382805	148.164807348377	1540.76589349238	944.836236189828	174.270159040926	1801.92215071061	1209.36307926792	136.636285445856	2102.44883981248	801.576112898891	211.603183001723	1513.45057674106	1064.35368465328	140.672512305339	1660.67985317477
534.10694337025	142.082403674188	870.987552981575	839.087795393998	247.784302320009	1054.0466402844	586.172135616318	150.983599945141	832.145701922964	1233.9903965502	163	1524.22951818754	1197.09510187446	140.1138973788	2035.72557227225	1108.69434229137	151.936899018804	1558.94364412162	483.051392323356	135.076252475754	706.899637845818	1119.46913069719	169.820033584971	1453.69704382772	632.308932499658	148.653383335633	843.19313443148	945.126109639602	184.421977498372	1155.09817791572	1139.44168568308	185.243315588564	1822.52289462481	1267.07519600769	148.162239137273	1536.13912625895	943.034393039108	174.240259620154	1796.18167994762	1206.57369314254	136.611703112635	2094.26661876169	800.227930754633	211.49807293272	1508.48952663378	1063.02216420055	140.628382784233	1656.23877032699
533.282472196927	142.061156926116	868.70787993227	838.095736996234	247.868958851342	1051.96433594057	585.441743279168	150.974893555147	830.247607695433	1232.02081694029	163	1520.64332394439	1195.3040604652	140.101082211157	2030.72605713242	1106.15129524003	151.901986826423	1553.84432407063	482.145311925551	135.069152925397	704.70397519434	1115.98018284511	169.778592502158	1447.10408954248	631.124182664165	148.620480260552	840.779026525339	943.292107756314	184.339687930007	1151.14129175612	1137.92961805601	185.215777756107	1818.89706717798	1264.98026023039	148.15462082999	1531.54058045986	941.135531332974	174.198833526873	1790.27156852439	1203.7801015392	136.590977555223	2086.19951526817	798.845879706939	211.386260028802	1503.48236651213	1061.79835583588	140.591871500837	1652.06393795311
532.506614592158	142.04072345119	866.462716245318	837.137065148592	247.903160653009	1049.89166516356	584.758977448497	150.95927654881	828.325164616422	1230.17854686973	163	1517.16477010706	1193.67229126452	140.082403674188	2026.21098183634	1103.85527785879	151.851766429769	1549.22319112648	481.259229559467	135.074233951621	702.543324557346	1112.77447551645	169.73973461998	1441.0775458233	629.986270194455	148.588017366278	838.439375419138	941.6194512574	184.267824069839	1147.46947501442	1136.55291481971	185.182962390819	1815.44355747214	1263.08410938532	148.142238939629	1527.28753882668	939.280292170016	174.153555464955	1784.55486283894	1201.15343852363	136.578975660725	2078.69942678449	797.521132598294	211.28411245261	1498.72786127875	1060.7384315557	140.567915431039	1648.3263530214
531.841816724634	142.025106444853	864.463529505153	836.273605173617	247.896083820328	1047.99847117505	584.167267273893	150.938843073884	826.557916481396	1228.57842217652	163	1514.0811924444	1192.32597366583	140.061156926116	2022.5487166284	1101.96367430239	151.792387159287	1545.39895686749	480.464504659747	135.087053926439	700.587832673588	1110.09102783963	169.711048316283	1436.06847482408	628.999622118166	148.560012907358	836.3574640083	940.236966289423	184.213854607458	1144.31539699842	1135.43919961857	185.149426403365	1812.37869782452	1261.52241282056	148.125647181409	1523.61077995573	937.583072407971	174.110833148395	1779.3348865699	1198.81284676497	136.578708599781	2072.09328884338	796.316011131539	211.204812901905	1494.45909182624	1059.85278899132	140.560030062813	1645.10062682469
531.327619103469	142.016400054859	862.861998248148	835.536271447039	247.853712296093	1046.38737597685	583.691660473962	150.917596325812	825.074725477604	1227.2843974501	163	1511.57930304487	1191.33568403699	140.04072345119	2019.96835577513	1100.5539350973	151.72946499539	1542.5501879079	479.815349235957	135.102409434054	698.97151779537	1108.06404872192	169.698054396982	1432.34973920346	628.240758687224	148.540901093108	834.670086610635	939.226927460622	184.18409521058	1141.8312074196	1134.67244878157	185.117482266015	1809.8585795984	1260.37498730757	148.105732463407	1520.65566578216	936.130547564364	174.074233951621	1774.8373908392	1196.8291547976	136.588980993719	2066.57494426915	795.268878459767	211.158327037799	1490.83119100649	1059.11898110251	140.567306530585	1642.38183498452
530.983558992745	142.016400054859	861.734849967127	834.932568754681	247.77983159048	1045.08640318986	583.342910556268	150.898917788843	823.94103506134	1226.31996690604	163	1509.73208191113	1190.72170500145	140.023779221956	2018.52491278627	1099.63259114007	151.669624922775	1540.69769100205	479.347557249913	135.1138973788	697.771386100493	1106.72567526223	169.702616735854	1429.9893638834	627.750179899936	148.535812825973	833.455265360299	938.617813356405	184.182360902846	1140.08649487236	1134.28269515475	185.088381149336	1807.97061019965	1259.65931985612	148.083730897085	1518.47985175174	934.97347466692	174.046700926337	1771.21203331728	1195.22387747482	136.607164532471	2062.22192775001	794.394142186951	211.149493179707	1487.92838669351	1058.49201392276	140.587252248206	1640.12051077463
530.812566807791	142.025106444853	861.093333004291	834.455518053148	247.678213071036	1044.06799502157	583.123740257502	150.8861026212	823.167629589735	1225.68094693975	163	1508.519002292	1190.46203754731	140.011749802608	2018.1332481413	1099.15488853154	151.618649777444	1539.74644600083	479.074489771419	135.118459717673	697.01200255942	1106.02756650417	169.723863483927	1428.8911745	627.536155181903	148.549078426354	832.731467404146	938.396930744866	184.210521278282	1139.0778258628	1134.25888848025	185.06381137191	1806.74178757098	1259.34882812658	148.061156926116	1517.0693837644	934.138248829277	174.031083920001	1768.52433074208	1193.98940217784	136.629181088325	2059.00763196237	793.694177644456	211.180354796566	1485.76718462536	1057.92684130216	140.616519581224	1638.24414987892
530.804938135044	142.042050674087	860.887537813857	834.093102993467	247.556523799608	1043.26814401461	583.031312194148	150.882867505224	822.719910675537	1225.34627821221	163.001327222897	1507.84464284038	1190.51437777789	140.004650252251	2018.60360654425	1099.05461899416	151.581624544297	1539.52533928971	478.993587043414	135.1138973788	696.66915900691	1105.87720791524	169.758413156949	1428.83859497691	627.577669592543	148.581414659009	832.462284585012	938.516030461221	184.266514002396	1138.73448289064	1134.55435154788	185.046700926337	1806.14168618033	1259.37994828225	148.04072345119	1516.34491410143	933.626039602088	174.028149857467	1766.76393618513	1193.09665327674	136.650301174778	2056.82385213945	793.167657041041	211.249383632022	1484.31231471043	1057.38963069896	140.651716311053	1636.67993848933
530.946276791842	142.065807178367	861.035526658174	833.840361094584	247.42629698593	1042.61886691381	583.065160749807	150.89075287345	822.542008282076	1225.29700414481	163.005977475148	1507.58493635908	1190.82196922146	140.002654445794	2019.68508367462	1099.2589320796	151.563439326857	1539.83115088663	479.085084174533	135.102409434054	696.680755513452	1106.16060319337	169.801166473127	1429.54852262646	627.832934331968	148.630919995718	832.575704575579	938.904425660184	184.346001732068	1138.93880084007	1135.10042994098	185.041506499712	1806.09584585396	1259.66821252927	148.023779221956	1516.1813338213	933.418170731774	174.041506499712	1765.84500444358	1192.50349361691	136.667932811011	2055.49411476409	792.810373919177	211.353794434754	1483.48497263776	1056.86173113583	140.690068767097	1635.35823225359
531.218278733729	142.094153476796	861.439601436901	833.699777888304	247.304138842699	1042.0681177645	583.220297257862	150.910667591451	822.57278144595	1225.51028988718	163.016400054859	1507.61625218626	1191.3302467453	140.005977475148	2021.12519179736	1099.70593070542	151.566274598904	1540.4720592367	479.319112327765	135.088381149336	696.966561421763	1106.76885662029	169.846444535045	1430.72980011804	628.250347921849	148.690068767097	832.976687883302	939.481580173766	184.440770141163	1139.53733205858	1135.82179512269	185.05325630232	1806.49632639014	1260.1262779372	148.011749802608	1516.42500104286	933.479915972962	174.07180737119	1765.61836490554	1192.16494265854	136.679104712785	2054.79925696642	792.617305119716	211.486390980746	1483.17172984323	1056.34393665964	140.72868265229	1634.21491779716
531.598244819629	142.124861433113	862.002882281431	833.676078510055	247.208672598686	1041.59033646679	583.486338440111	150.941375547768	822.754773650915	1225.95973628231	163.035529024564	1507.83519366956	1191.9827988925	140.016400054859	2022.7084528827	1100.34136759988	151.591239413084	1541.29444705683	479.658074660791	135.077556980975	697.440507134444	1107.60195087396	169.889166851605	1432.12646225539	628.774349637992	148.749478967625	833.565116943484	940.168918198315	184.540100889131	1140.36640110811	1136.64736837805	185.086880203152	1807.21995600765	1260.67700202625	148.004650252251	1516.91826868926	933.766578172052	174.119607655062	1765.89907820387	1192.03499816764	136.683233774375	2054.50902024348	792.581033766665	211.638114062708	1483.24220879407	1055.85038680418	140.76684269955	1633.19606639808
532.062142215036	142.155948052887	862.645361116307	833.773265237585	247.156312141865	1041.18661291971	583.845835402182	150.979566525074	823.045880488485	1226.61094412431	163.064502673146	1508.17426399805	1192.72200372951	140.035529024564	2024.28544242218	1101.11356424997	151.636897470866	1542.20096579268	480.058450728946	135.076252475754	698.023594612664	1108.56996535963	169.925766048379	1433.55451496191	629.353385450032	148.800620398868	834.248882740738	940.902273786903	184.633731009344	1141.27222713484	1137.52028513938	185.144714099915	1808.14022724658	1261.26541247804	148.001327222897	1517.51785528485	934.225072560883	174.185067100016	1766.48561185126	1192.06993297397	136.682611113932	2054.40779618305	792.688223943182	211.799444721189	1483.56074040071	1055.40000369411	140.802656078455	1632.25552372984
532.583284382979	142.18426689604	863.309989639007	833.985820550977	247.157253806677	1040.87635566951	584.27337030553	151.020433474926	823.414525710675	1227.4194098171	163.101880377306	1508.59829285634	1193.48712062415	140.064502673146	2025.77830096637	1101.96959950542	151.699298513675	1543.14768528347	480.476999907935	135.089609117999	698.651855068576	1109.59284008442	169.955953519456	1434.91573129999	629.938887969629	148.837506870953	834.946688393869	941.630230308361	184.713052522677	1142.12901639365	1138.39299203536	185.225790551206	1809.13807720592	1261.85502625246	148	1518.11230852899	934.800777743521	174.26438861335	1767.2026172954	1192.22960924116	136.679964396282	2054.3390627342	792.917745408469	211.960356635565	1484.00892637864	1055.01195619886	140.833424219715	1631.36998622095
533.135611132421	142.208050855597	863.964970073598	834.297537909025	247.212822290499	1040.68659169673	584.738620410857	151.058624452232	823.84302583357	1228.33431573909	163.143560600305	1509.10146666786	1194.21723188586	140.101880377306	2027.18443914642	1102.85511221191	151.77246207189	1544.14706919749	480.873207718919	135.119607655062	699.28334569006	1110.60382646544	169.980871030295	1436.20888432358	630.493208022218	148.859145596866	835.602576686608	942.327683058626	184.774209448794	1142.87114383083	1139.23524948268	185.326872762363	1810.13095503194	1262.43984052263	148	1518.65161634252	935.440882568299	174.353716214724	1767.92419319236	1192.47960840179	136.680327119226	2054.22438986083	793.242123747692	212.113803903201	1484.49899284069	1054.69798943849	140.857411289132	1630.54099486306
533.697542381254	142.225943644269	864.605304932409	834.685727620157	247.314949236468	1040.64501864642	585.214314481166	151.089332408549	824.326011135111	1229.31167807773	163.183485885345	1509.70527857254	1194.85933570059	140.143560600305	2028.5529881552	1103.7228666919	151.849246373738	1545.2490367043	481.214099117493	135.165938130311	699.894607797268	1111.55886823342	170.005977475148	1437.51709341305	630.986840806123	148.86916109174	836.183536008652	942.99099373554	184.816687837942	1143.49501484191	1140.02783080488	185.440770141163	1811.0746029219	1263.03366615272	148	1519.14889017581	936.096966218736	174.446397845072	1768.59285603025	1192.79145016902	136.686216680996	2054.07825435968	793.626109864345	212.25613631843	1484.98436719675	1054.45938622295	140.870317498639	1629.80218208243
534.256606023752	142.237024504179	865.247776680657	835.126581588414	247.447963167121	1040.76967204534	585.682286177499	151.10924712655	824.865023725118	1230.32387666587	163.214979589957	1510.44567359817	1195.38320572184	140.183485885345	2029.95519121957	1104.54769531973	151.922443019025	1546.52098464453	481.483159506307	135.224992385057	700.476999907935	1112.45181513525	170.036856247461	1438.97779363579	631.403336727114	148.873025595694	836.688493469002	943.636609924202	184.845923344385	1144.06878032036	1140.76224926835	185.559229858837	1811.98005356991	1263.66560652767	148.001327222897	1519.68578332834	936.731101809609	174.53545063688	1769.22840246667	1193.14903868421	136.698757039074	2054.01034837662	794.033238312169	212.384678814131	1485.4632174452	1054.29022154817	140.86836292559	1629.22339515038
534.811270843942	142.242100792802	865.927036949938	835.601284421843	247.592209254062	1041.0727210832	586.136114392632	151.117132494776	825.473698777273	1231.3652679691	163.233684319371	1511.37356275873	1195.78432505576	140.216306812854	2031.47182673615	1105.33123214113	151.984792778275	1548.03767023918	481.677680065945	135.292559288608	701.037050650597	1113.31340455294	170.080902728005	1440.75606235818	631.742887567584	148.875562807179	837.143743010368	944.300913444803	184.868463256822	1144.71030164293	1141.44363290617	185.673127237637	1812.89989447114	1264.3799037137	148.004650252251	1520.38935090779	937.314751260098	174.615026279931	1769.90774829802	1193.54478460361	136.717689705759	2054.18780154197	794.427409550576	212.497938542957	1485.9678903619	1054.17559396827	140.851418696356	1628.89131414639
535.368366844221	142.241674756429	866.685346741474	836.101256916073	247.728499418439	1041.55779061079	586.582714346425	151.113897378801	826.169203348452	1232.45242475003	163.238334571621	1512.54111363487	1196.08946751256	140.238334571621	2033.15795407436	1106.10589338476	152.032196346704	1549.85097136357	481.813593259233	135.362666947986	701.58617364243	1114.21137244467	170.143386877018	1442.99260908782	632.022185589431	148.880125146052	837.59763875275	945.024473415338	184.893202171557	1145.55892822699	1142.0842753907	185.774209448794	1813.91386280135	1265.21693502666	148.011749802608	1521.39969021363	937.833534643233	174.680231595168	1770.73730411679	1193.98441728941	136.740009547011	2054.79548037485	794.778782907326	212.594932606687	1486.54834555996	1054.10138370579	140.819583152234	1628.89285602176
535.942681952873	142.237693446878	867.563806693257	836.629091363703	247.839762635386	1042.22101988813	587.037900794705	151.101082211157	826.970103885525	1233.61611366202	163.231379644816	1513.98985944536	1196.35115637866	140.248757151332	2035.03281197858	1106.92628779055	152.061424125002	1551.97783230544	481.919781066283	135.428390950576	702.141116260995	1115.23045169554	170.225790551206	1445.76902163813	632.270237260956	148.885840763338	838.111728041429	945.843786668912	184.926020040153	1146.73883948242	1142.70185985274	185.856613122982	1815.1073583379	1266.20821874561	148.023779221956	1522.83312967364	938.284099191069	174.728306688606	1771.81438083284	1194.4791455521	136.764040860857	2055.98278434399	795.065519862308	212.671552878598	1487.2494016427	1054.05284461782	140.775007614943	1629.28741313395
536.547577480171	142.231830077553	868.589726563369	837.192213192402	247.916639267164	1043.05248419072	587.517382768184	151.082403674188	827.889937996595	1234.88199021264	163.219014909909	1515.73698287431	1196.6321248437	140.250508614521	2037.06928370522	1107.849830748	152.07265273695	1554.38671761254	482.029773714616	135.483401623375	702.716997245495	1116.44953358986	170.325545539466	1449.07639946081	632.524045394357	148.889166851605	838.747831635485	946.778100589943	184.97006957961	1148.32775134199	1143.31274575726	185.917770049098	1816.54762065523	1267.36237727617	148.04072345119	1524.7487883257	938.673545540552	174.758607560084	1773.19052426899	1195.04463362771	136.786757417551	2057.81489563245	795.276038969352	212.722082077316	1488.0890447284	1054.02294442206	140.721919428847	1630.08442003406
537.187240627728	142.22499034723	869.768840861663	837.795350591152	247.955222222311	1044.03410987788	588.029052065977	151.061156926116	828.931253722222	1236.25419348841	163.208063273451	1517.76149599121	1196.98695320712	140.247988558491	2039.20494497773	1108.91537764963	152.069326648683	1556.9993794452	482.174076064001	135.52159260068	703.326419422336	1117.91400677956	170.434792666016	1452.81320330415	632.81633199143	148.885042597189	839.556040093894	947.818513335603	185.023779221956	1150.33256987723	1143.92168352524	185.957166277391	1818.2636448739	1268.65598984399	148.061156926116	1527.13154961554	939.011092974516	174.771689392763	1774.84986086679	1195.68935481778	136.807218417328	2060.24787441599	795.405885649225	212.737784627523	1489.04490391401	1054.00718272613	140.664979477698	1631.2311718786
537.855364317481	142.217104979004	871.074536790189	838.435997965795	247.957710451766	1045.13273352736	588.569118830934	151.04072345119	830.073753741667	1237.70755029873	163.203760754612	1519.99262024372	1197.44432292652	140.245440977611	2041.33487117587	1110.12377082185	152.056506673866	1559.68412722783	482.371902680734	135.538156834051	703.97129448936	1119.6122357072	170.541502581081	1456.7838558679	633.171039288872	148.869690148487	840.560932700909	948.931199546517	185.082403674188	1152.68554409059	1144.52596607481	185.977622469994	1820.23529746261	1270.03946922141	148.082403674188	1529.88684869146	939.305876906404	174.770336682844	1776.70235184173	1196.41417777329	136.824416776278	2063.12651382115	795.456004051976	212.708998196179	1490.05044919717	1054.00614829115	140.607659530687	1632.6154568242
538.528756320268	142.208592330198	872.45660035864	839.095186060694	247.929799468446	1046.30427286235	589.118095347222	151.023779221956	831.279166417495	1239.17914165745	163.209390496348	1522.31884081542	1197.99614743057	140.246768200508	2043.34244058759	1111.43033077135	152.039396228293	1562.28101380765	482.626802818131	135.531865749665	704.644781743047	1121.46973461033	170.632947960822	1460.73249250738	633.59318577293	148.841343850058	841.756789851262	950.053075797968	185.138459915317	1155.25494314157	1145.10606984652	185.980945499347	1822.39438001066	1271.4334042109	148.101082211157	1532.85812862666	939.56513948335	174.75911579904	1778.6003981317	1197.20702933281	136.83721695439	2066.20862242215	795.434117341239	212.626787251824	1491.00844122494	1054.0242462275	140.552301124476	1634.08579622392
539.17286376501	142.199885940204	873.847079464445	839.740196488041	247.881439951095	1047.49643699069	589.643373447823	151.011749802608	832.494311601644	1240.57958083508	163.22366516216	1524.60442739425	1198.60065608613	140.253966033639	2045.10864633788	1112.7519082142	152.023779221956	1564.61996050883	482.925581955697	135.503674444184	705.327468688115	1123.36308035957	170.69795697304	1464.3851950209	634.068547548504	148.802231838163	843.097154477928	951.109568805412	185.184551250381	1157.8622087374	1145.63600069163	185.970243302896	1824.62473753158	1272.74840076578	148.113897378801	1535.84312837457	939.792198363214	174.743607385931	1780.37239797779	1198.04081136457	136.846444535045	2069.21073493593	795.351957278798	212.487794502988	1491.81671918524	1054.06584334037	140.500605406604	1635.48213506478
539.748126889954	142.191454359776	875.175726263074	840.333715947488	247.825016453007	1048.65661362985	590.108787513515	151.004650252251	833.659998710406	1241.81287352999	163.243129447424	1526.71259001084	1199.19485732502	140.26690866938	2046.54292375425	1113.98704099534	152.011749802608	1566.55927968085	483.242896910494	135.458559470118	705.992814618933	1125.14751434105	170.73095352372	1467.50764630906	634.562358258472	148.758325243571	844.502209252117	952.02529339832	185.214891676579	1160.32031490795	1146.08541802828	185.947526746202	1826.78907276226	1273.89644839663	148.118459717673	1538.63619509889	939.992927586509	174.729460188216	1781.86285052334	1198.88273101199	136.851789147445	2071.86361868659	795.233389585003	212.300008136631	1492.4001048704	1054.13803006796	140.453157593746	1636.67390061595
540.221103677644	142.184289613716	876.384416178548	840.846161759221	247.775738912088	1049.74309859584	590.484772493448	151.001327222897	834.724365966416	1242.80097139654	163.263441016474	1528.53413732782	1199.71973677495	140.284286175897	2047.59620976451	1115.04777816699	152.005977475148	1568.01406126638	483.547734837261	135.403281805949	706.608857905241	1126.69708709879	170.733485997604	1469.94808986297	635.027092296017	148.717973922157	845.868332404863	952.740459009655	185.227794757601	1162.46503422435	1146.42792851409	185.915063851928	1828.74766761138	1274.81198652689	148.113897378801	1541.05673488839	940.173739885151	174.72253626103	1782.96348997542	1199.69258266455	136.855112176798	2073.95567703005	795.110328660416	212.083373939948	1492.734391633	1054.24738476665	140.410586503994	1637.58404750451
540.571450456202	142.178400051946	877.438673440361	841.266621155955	247.750100710714	1050.73591457719	590.754355533423	151	835.651386966062	1243.50348126748	163.280385245708	1530.00781560393	1200.1411393671	140.302837244767	2048.27134968244	1115.88529488818	152.005977475148	1568.9733443892	483.811727828164	135.344882356632	707.145691678445	1127.93932515319	170.713850688827	1471.66510014301	635.412179373961	148.689801568211	847.083287895094	953.227538878379	185.225519403977	1164.17903028335	1146.65313637067	185.876872874622	1830.38521148105	1275.46391044339	148.102409434054	1542.97658335215	940.340787337166	174.726919452337	1783.63123350661	1200.42664131643	136.858194337653	2075.36141885347	795.018177997332	211.868577583841	1492.85231911579	1054.39652360695	140.375316208805	1638.20016241342
540.796628774884	142.173988939881	878.323145996191	841.609683073895	247.767845143924	1051.63542116531	590.917205619608	151	836.421703344144	1243.92388471888	163.293863793829	1531.12043274803	1200.45993712391	140.319514413057	2048.62311389517	1116.49989390522	152.013077025505	1569.50153455644	484.014909991121	135.290553182329	707.578377956575	1128.86303930743	170.684889458099	1472.72678059635	635.671757831207	148.68070308291	848.043292596107	953.492654762013	185.214028330745	1165.4019946119	1146.76506060122	185.839088085624	1831.62371656267	1275.86186493417	148.088381149336	1544.32952355699	940.498940005701	174.74386368157	1783.87841448234	1201.04504685968	136.862323399243	2076.03860689276	794.994226013819	211.692981153008	1492.83173680298	1054.58460745092	140.351528774479	1638.55958666306
540.90858611652	142.169457600627	879.038313050411	841.909879805329	247.844616376603	1052.45738626917	590.987487475846	151	837.026563247803	1244.10369469508	163.307396059245	1531.89361278325	1200.70349939821	140.3316967379	2048.72163729638	1116.93028986035	152.029756697104	1569.70202191867	484.146072819073	135.247037299278	707.883917514979	1129.5040896648	170.660583217222	1473.26180139716	635.774143521113	148.694451820461	848.671547608995	953.570971161797	185.203745636985	1166.12901205835	1146.78233540931	185.808349199262	1832.43237174144	1276.04464498146	148.077556980975	1545.10832468431	940.646800691109	174.773270607435	1783.75245498601	1201.5093222827	136.869790479719	2076.01060276379	795.064705407065	211.591296748456	1492.76539853903	1054.80160660604	140.344360899933	1638.72524571409
540.929424353444	142.16356636017	879.578262914031	842.213685888711	247.992308472233	1053.21283325107	590.985762111196	151	837.452603314769	1244.10365106306	163.325545539466	1532.34689692956	1200.91147843942	140.338796288258	2048.6292223302	1117.22845312751	152.057123506049	1569.67476898283	484.204164739789	135.218818468947	708.045433392765	1129.91125369736	170.651091078932	1473.3994458411	635.705991017427	148.731050947662	848.919807718696	953.509520775677	185.204029853383	1166.38403620426	1146.72888942241	185.792207873778	1832.80927192868	1276.06374157403	148.076252475754	1545.33476647046	940.771097156949	174.811863862404	1783.29639357391	1201.78382846646	136.881452368949	2075.32725516472	795.236128835616	211.58610232183	1492.71891691898	1055.02831250594	140.357205322475	1638.74499930852
540.879221181817	142.15462082999	879.921507194195	842.56291447476	248.214382874947	1053.89899537414	590.928892596922	151	837.675374915348	1243.97885049598	163.354514380874	1532.47721259565	1201.10772386316	140.340639189219	2048.36205863578	1117.42714784936	152.09668595068	1569.4655644775	484.19099877982	135.20787713231	708.045991801624	1130.10603507117	170.660583217222	1473.20030344497	635.469126324001	148.786754717777	848.771868299356	953.344052469053	185.222345549943	1166.19545181979	1146.62217859834	185.795984464355	1832.77066580047	1275.95677574773	148.088281895102	1545.03350047442	940.847324373948	174.855112176799	1782.5237878393	1201.83637089883	136.897590565946	2074.03288990152	795.491305791533	211.683753306315	1492.7018890404	1055.23502533556	140.392161183805	1638.62673368135
540.771197818447	142.143566162526	880.023185667588	842.980958203207	248.506802277604	1054.48536300114	590.824981139687	151	837.654415627449	1243.75911625228	163.397003139417	1532.23572276415	1201.28408024395	140.337583220809	2047.87664710227	1117.51426820449	152.146906347334	1569.0401436866	484.107419039969	135.212719087923	707.868563688739	1130.05782120994	170.686216680996	1472.62579726643	635.078397999405	148.854705091961	848.240559847341	953.085486475846	185.260536527249	1165.580004445	1146.4649333313	185.82118152236	1832.34002090202	1275.73016217382	148.113630179914	1544.21392323696	940.839538639848	174.898119622694	1781.39663263843	1201.63975335814	136.917596325812	2072.13649380611	795.790089720256	211.873054112805	1492.65035222392	1055.38667906596	140.445961868015	1638.32069630536
540.604247925569	142.130297433659	879.818286011677	843.463631135576	248.855833174121	1054.91567658105	590.670270551446	151.001327222897	837.339198672778	1243.43456871886	163.452519943772	1531.53016243855	1201.3953114312	140.329043047154	2047.07185603451	1117.42850768883	152.20428981136	1568.27940505497	483.950724703985	135.228854781612	707.493925030912	1129.68467629278	170.719828163975	1471.53592244852	634.549838123639	148.92627999813	847.357455526598	952.705505578157	185.315122959755	1164.53524207838	1146.23359044742	185.864855873127	1831.53314154411	1275.34110198136	148.148210852555	1542.85932952395	940.703760625191	174.936824549751	1779.8406599672	1201.16983135594	136.938843073884	2069.61835128693	796.074019121799	212.127005828706	1492.44131061555	1055.44343319397	140.512471618901	1637.73451823261
540.367731485236	142.117482266015	879.241288872958	843.980432304644	249.244832634005	1055.12243468067	590.451794998106	151.004650252251	836.686367332395	1242.96215620104	163.517528955989	1530.25211584619	1201.3723424164	140.313783319004	2045.82433165717	1117.07504318915	152.262108231356	1567.01580642775	483.713044685416	135.249293063712	706.905994284601	1128.88007763349	170.75121327536	1469.73800159596	633.902185663912	148.992817273865	846.173205554435	952.153209462124	185.377594690914	1163.05858586015	1145.89085962802	185.920164536915	1830.37422840147	1274.71500149502	148.184813108242	1540.9471500976	940.397604081246	174.969121227686	1777.7676905297	1200.40906518218	136.95927654881	2066.44066587276	796.278919663904	212.411901309037	1491.92244426852	1055.36806204239	140.582986363117	1636.75657856944
540.045341993035	142.107510119041	878.254794359746	844.482861762652	249.655322791055	1055.05493057454	590.157222747587	151.011749802608	835.685485947432	1242.28413865269	163.586454082056	1528.32541562042	1201.14291978374	140.290545571649	2044.02586953359	1116.35784374583	152.313695405626	1565.08469044985	483.384819213133	135.26721678243	706.092830071934	1127.55665965794	170.772460023432	1467.06324332137	633.151420072724	149.047281734462	844.748940255762	951.372240323227	185.436893288928	1161.16480817314	1145.39465693711	185.977955085778	1828.89491641133	1273.76469462394	148.214979589957	1538.4688790655	939.889717607211	174.995349747749	1775.11390991472	1199.35139953959	136.976220778044	2062.57604024201	796.348944285448	212.697534770574	1490.95676797251	1055.13180895904	140.64804351046	1635.29135106257
539.627851539862	142.101880377306	876.866553682863	844.923571613335	250.072339127712	1054.69458386347	589.784595059124	151.023779221956	834.367994666187	1241.35405423894	163.651880489565	1525.73548722012	1200.66332969495	140.260112424899	2041.63614146274	1115.22042521685	152.353983413611	1562.38829458682	482.963108379796	135.276136516073	705.056529448821	1125.69667812383	170.780186923941	1463.44810338931	632.317146769001	149.084140681697	843.158938937304	950.329999991	185.485520156789	1158.9172731519	1144.71671882278	186.028961230728	1827.15628733226	1272.42366721454	148.232357096474	1535.46431605437	939.172572500608	175.017801746809	1771.88470989774	1198.01096514784	136.988250197392	2058.05603303017	796.250222957183	212.960964712231	1489.47052135108	1054.72379691919	140.699184941703	1633.30350389357
539.120283769077	142.101880377306	875.149321002994	845.268083588452	250.485509856966	1054.07526657409	589.346444771372	151.04072345119	832.819152184083	1240.15930822812	163.709200436576	1522.56521256694	1199.93263458136	140.22499034723	2038.70912067749	1113.66954342523	152.380140233968	1558.94222258249	482.454561115987	135.27440777056	703.819730943749	1123.37459198988	170.777662060737	1458.98933180895	631.429831834595	149.100732439917	841.491630348397	949.044776878943	185.519144057621	1156.44183296071	1143.86535032464	186.067313686772	1825.25800267319	1270.68585755574	148.232357096474	1532.04823175049	938.265704850531	175.039396228293	1768.17401184922	1196.42426357653	136.995349747749	2052.99336138194	795.976815218013	213.192177819659	1487.47678363988	1054.15048024883	140.730424466972	1630.8342077411
