Light	Light	Light	Light	Light	Light	Light	Light	Light	Light	Light	Light	Light	Light	Light	Light	Light	Light	Light	Light	Light	Light	Light	Light	Light	Light	Light	Light	Light	Light	Light	Light	Light	Light	Light	Light	Light	Light	Light	Light	Light	Light	Light	Light	Light	Light	Light	Light
Optode1-730nm	Optode1-Ambient	Optode1-850nm	Optode2-730nm	Optode2-Ambient	Optode2-850nm	Optode3-730nm	Optode3-Ambient	Optode3-850nm	Optode4-730nm	Optode4-Ambient	Optode4-850nm	Optode5-730nm	Optode5-Ambient	Optode5-850nm	Optode6-730nm	Optode6-Ambient	Optode6-850nm	Optode7-730nm	Optode7-Ambient	Optode7-850nm	Optode8-730nm	Optode8-Ambient	Optode8-850nm	Optode9-730nm	Optode9-Ambient	Optode9-850nm	Optode10-730nm	Optode10-Ambient	Optode10-850nm	Optode11-730nm	Optode11-Ambient	Optode11-850nm	Optode12-730nm	Optode12-Ambient	Optode12-850nm	Optode13-730nm	Optode13-Ambient	Optode13-850nm	Optode14-730nm	Optode14-Ambient	Optode14-850nm	Optode15-730nm	Optode15-Ambient	Optode15-850nm	Optode16-730nm	Optode16-Ambient	Optode16-850nm
406.971994292512	142.994022524852	737.978241043828	1361.48217301137	179.696473182311	2041.19177609487	1652.94922161273	143.269845431688	2854.87920408759	1954.71478242632	160.645469737135	3103.67736056544	1401.51064731543	132.709200436576	2765.2287538052	1339.70631874989	149.542134668834	2127.69215286874	745.760273560142	130.239556978063	1351.12703789825	960.378967388743	148.114441553175	1275.88658979486	925.751436566081	143.856439399695	1692.66807618423	646.975427984012	162.818966320051	790.269193805949	1111.72108748505	155.29991573803	1797.25412432778	574.209745639705	149.500779129891	658.114143243037	1196.22911310815	144.214979589957	2239.21555897982	1353.12120181586	137.998672777103	2268.45178112627	998.052971755608	143.141261487972	2040.78624419593	1047.89517563064	148.21365236706	1569.15506290503
407.216645365968	142.983599945141	738.638889870855	1362.96229149533	179.620386784953	2044.85064084931	1654.21569889891	143.280698854946	2858.50782102456	1956.49098345963	160.649012700122	3108.84639962306	1402.91442887795	132.707087465383	2769.18969582975	1341.30870894724	149.524037161186	2130.85545476126	747.144591241377	130.261063546169	1354.8744626954	961.806141151124	148.161889366034	1278.34202177072	926.842338403716	143.816514114655	1696.18161419457	648.078023318062	162.82055504167	792.115555911901	1112.46765040618	155.264932787725	1799.83565543627	575.266704878601	149.439987092642	659.774751103595	1196.32597139961	144.183485885345	2241.40504330256	1353.71514734861	138	2270.68311147393	998.104110528378	143.158656149942	2041.90236438826	1048.33001491099	148.183485885345	1570.71453093314
407.383269422862	142.964470975436	739.100810025162	1364.07082399415	179.540551321868	2047.9004842878	1655.10038671286	143.280031950074	2861.40090892894	1957.87504659439	160.641633533025	3113.28815276628	1403.63549240666	132.693577868018	2770.94389831777	1342.34922729856	149.487960833761	2132.61806703076	748.066707140805	130.281237201061	1357.23399538126	962.67048477487	148.190323577841	1279.70306458306	927.419251788428	143.785020410043	1698.36390161173	648.795797724327	162.79789519515	793.329437657125	1112.50597154727	155.228496748377	1800.78295709967	575.983937810265	149.370302410723	660.89967853625	1195.90841364816	144.143560600305	2241.90971991067	1353.77011117467	138	2271.43413795844	998.038063136368	143.188143748275	2042.40343989826	1048.54416765092	148.143560600305	1571.58070224661
407.465058164752	142.935497326854	739.321157361051	1364.78946869022	179.459448678132	2050.19447249474	1655.5505905069	143.26797160068	2863.30865956488	1958.81436228807	160.627123815951	3116.67274073891	1403.71203628476	132.670846321792	2770.64545616684	1342.81240886025	149.440231795048	2132.97493250669	748.510809821887	130.297645122007	1358.20419830338	962.991038242542	148.200837199416	1280.02156821164	927.517452973305	143.767642903526	1699.29110067487	649.133331733032	162.755955152118	793.935540357901	1111.93912003396	155.196033854103	1800.3361491586	576.360327535226	149.302216750247	661.498638669034	1195.12160388145	144.101880377306	2241.03206054024	1353.36376653308	138	2270.86501419404	997.828731783931	143.229657754935	2042.23122823905	1048.54543606283	148.101880377306	1571.74606689049
407.46854171028	142.898119622694	739.292566581411	1365.17856363111	179.379613215047	2051.75495603452	1655.59492227019	143.248774306787	2864.15626924411	1959.34132593259	160.608906081115	3118.89133626401	1403.25959206522	132.641721446403	2768.65928584709	1342.76687464815	149.385328832334	2132.10741028317	748.52550824198	130.306683768647	1357.9533514043	962.861488779011	148.196301052989	1279.48893388228	927.208919158546	143.767642903526	1699.14464548907	649.141203297842	162.701035521183	794.043523351518	1110.91487607921	155.170235136553	1798.83428206068	576.429379395144	149.243141865278	661.643792704518	1194.11001408555	144.064502673146	2239.16441815437	1352.60527973884	137.998672777103	2269.27946430017	997.467788268305	143.280171836026	2041.42958193772	1048.360728582	148.064502673146	1571.30539660618
407.412936592709	142.856439399695	739.040561106991	1365.35938852273	179.30352681769	2052.74819103316	1655.3330464099	143.227175087702	2864.04035833564	1959.56154315828	160.591435854047	3120.04745004873	1402.45240536937	132.610114391015	2765.5179130298	1342.34657548202	149.330632127912	2130.34881035865	748.210876491232	130.307918270992	1356.78428400528	962.424921188173	148.179616643789	1278.39203909138	926.597655058812	143.785020410043	1698.17235639027	648.903577707355	162.639179427744	793.81113166566	1109.60732726297	155.152080849159	1796.65733179757	576.251566490364	149.197454552599	661.441042361372	1193.0042340403	144.035529024564	2236.72177120735	1351.61190093338	137.995349747749	2267.04917218629	996.964024997805	143.33291228871	2040.11251013729	1048.02798349658	148.035529024564	1570.42215523084
407.319064632536	142.816514114655	738.613135545798	1365.47297729274	179.233505033862	2053.41521254266	1654.897833463	143.207094083788	2863.17732248291	1959.61106921953	160.578794475332	3120.38919303938	1401.48753843003	132.580041025761	2761.8502062901	1341.72111420101	149.281854033244	2128.12812104353	747.697296482611	130.30151002187	1355.08246559598	961.843224589029	148.15462082999	1277.06208214185	925.804636540702	143.815186891758	1696.66869272551	648.519071985996	162.575629913695	793.414899006531	1108.19567399058	155.139510024783	1794.19248085321	575.900700748294	149.164616469636	661.012376045646	1191.90738608325	144.016400054859	2234.07439070212	1350.49138265711	137.988250197392	2264.51807953329	996.336348894057	143.378813011071	2038.41616887247	1047.58853436477	148.016400054859	1569.27169158581
407.206530902867	142.785020410043	738.071375414338	1365.64527743247	179.17156235945	2054.00559355861	1654.42094097591	143.19066861148	2861.84287548892	1959.62134259418	160.574437080562	3120.23139133095	1400.55876387481	132.55571038852	2758.29246490004	1341.06638590835	149.244469088175	2125.89493997237	747.123418086533	130.291232065711	1353.25469882634	961.268029269877	148.124861433113	1275.81432490398	924.953947389669	143.851789147445	1694.94563296779	648.083427650633	162.517551673665	793.01698699895	1106.84207558301	155.131624656556	1791.80120650181	575.453825367247	149.144701682061	660.477597082256	1190.89152454788	144.005977475148	2231.52143942195	1349.32698943899	137.976220778044	2261.95383940033	995.607771814243	143.408738624287	2036.46840442527	1047.07987986718	148.005977475148	1568.00993015361
407.089381252636	142.767642903526	737.472942996097	1365.96099032651	179.11925992165	2054.71804315662	1654.00489737291	143.177884373882	2860.30882438673	1959.69110163605	160.579136314842	3119.87530777842	1399.8206791311	132.539573870211	2755.39057415575	1340.52721932244	149.221140298956	2124.04426457991	746.609918909076	130.280171836026	1351.66057507127	960.811286809717	148.094153476797	1274.89523543504	924.154495655054	143.885042597189	1693.28499436218	647.670904998394	162.46919961537	792.734905507393	1105.66963049607	155.12618865601	1789.76990086265	574.980158137173	149.135489160511	659.935602751265	1189.99172382401	144.001327222897	2229.23975708931	1348.16808434166	137.95927654881	2259.49253277544	994.796318181179	143.415842981819	2034.34809066391	1046.52854638716	148.001327222897	1566.73118810767
406.971139751819	142.767642903526	736.866274582589	1366.44657459967	179.077556980975	2055.6663073948	1653.69927342378	143.16821661242	2858.78873251385	1959.86406361671	160.592998383221	3119.54986888548	1399.36487801029	132.535465092561	2753.50922941013	1340.19572861537	149.214040748598	2122.84915181868	746.242016163113	130.27266520083	1350.55725932999	960.531496765635	148.065807178367	1274.44565600455	923.485524668246	143.90574062975	1691.90276747042	647.326250437551	162.434101226838	792.629555732459	1104.74871874095	155.123127125378	1788.28087197291	574.531388117979	149.136204150883	659.459057093568	1189.21422625749	144	2227.29672947855	1347.0414171104	137.938843073884	2257.16137842742	993.92038750827	143.398465475302	2032.09680855898	1045.95594239501	148	1565.48003278183
406.848443400415	142.785020410043	736.283971915343	1367.07485658324	179.046700926337	2056.87848873615	1653.5024562233	143.160598305138	2857.41677266012	1960.13309950957	160.611982729374	3119.38570115797	1399.20953590326	132.54265051847	2752.78402484937	1340.09518268819	149.220689866219	2122.41886480004	746.057436836811	130.270096989727	1350.06540790538	960.429848270385	148.042050674087	1274.48632091708	922.980434333573	143.907347469387	1690.91082036919	647.058343074774	162.412874275471	792.698087514652	1104.08674500106	155.122313852232	1787.38500060769	574.13811021367	149.146093074189	659.087512039449	1188.53727267521	144	2225.66339391556	1345.95022207105	137.917596325812	2254.91149040669	992.993548733245	143.358540190262	2029.72815312914	1045.37633224372	148	1564.26559500296
406.716134683532	142.816514114655	735.743867432547	1367.78620453294	179.02643366775	2058.31992267405	1653.37551629135	143.155315965134	2856.2502079994	1960.4542209725	160.628551700346	3119.4201498537	1399.30168513828	132.560028024986	2753.11156955801	1340.18180077377	149.236480329804	2122.69088963834	746.04338418994	130.27388075164	1350.15675578096	960.457221854737	148.023779221956	1274.92777740249	922.626134867693	143.886913994461	1690.29816115863	646.847056560055	162.402871246343	792.883145305333	1103.63509940442	155.123127125378	1786.9972568169	573.804844580535	149.163850576568	658.826212560884	1187.92005163706	144	2224.2438424592	1344.88545380896	137.898917788843	2252.66654387109	992.030156547223	143.304070992064	2027.25209101558	1044.80150400601	148	1563.08931341071
406.56960359446	142.856439399695	735.256598743386	1368.50692693864	179.016400054859	2059.92724480528	1653.25876761294	143.154076655615	2855.29342713651	1960.7625371564	160.63520562514	3119.62645905606	1399.54225270528	132.583009080793	2754.200671558	1340.36908845131	149.256398176291	2123.46659275173	746.14919844534	130.283500427601	1350.681693864	960.536602442388	148.011749802608	1275.60288281102	922.370592312122	143.845788954621	1689.94279259994	646.651187139871	162.398719467077	793.091161593462	1103.30630508649	155.124861433113	1786.92582506685	573.515725741423	149.186018359229	658.649441728494	1187.31482299427	144	2222.92385699259	1343.83361955569	137.8861026212	2250.37854954226	991.044559136884	143.244207230313	2024.70209619912	1044.24447169431	148	1561.97453902495
406.40776117263	142.896792399797	734.832637856411	1369.17606092732	179.016400054859	2061.64797424934	1653.09585711123	143.158205717205	2854.53568139924	1960.9947152454	160.624523225395	3119.95631676063	1399.80957205933	132.605015384716	2755.658350405	1340.55228780351	149.273168461042	2124.47624694263	746.300287753371	130.296668066258	1351.41647403688	960.583164537999	148.004650252251	1276.3169511408	922.141455007063	143.789732713493	1689.66274892716	646.425144275578	162.393644974534	793.226539167847	1103.00070542038	155.125647181409	1786.93453273727	573.244820423667	149.208050855597	658.517102976752	1186.6797668611	144	2221.60915013313	1342.78754944461	137.881540282327	2248.06128306045	990.056128915345	143.189084489519	2022.15070820413	1043.72129347799	148	1560.98233331636
406.237719639323	142.930847074603	734.488869572765	1369.76069072076	179.025106444853	2063.46553470471	1652.85161260597	143.169994268054	2853.98604722344	1961.10623661656	160.591159144597	3120.38174818457	1399.99253094022	132.619588618803	2757.07928145046	1340.63945998615	149.282026077843	2125.44960806465	746.420238748774	130.31045555205	1352.11624097363	960.526227666516	148.001327222897	1276.89262960068	921.869135574118	143.726141966036	1689.26198096419	646.133176464687	162.380140233968	793.212458738985	1102.6323809686	155.123109969924	1786.79690063381	572.966314837226	149.22419218108	658.38701525681	1185.99072489218	144	2220.25948936633	1341.75452354686	137.8861026212	2245.80859014006	989.091295394411	143.146362172959	2019.71973612451	1043.25671206802	148	1560.21392197476
406.070480148294	142.952721172828	734.247061453945	1370.25624948162	179.04072345119	2065.38972592728	1652.51749063999	143.190261526642	2853.6709838591	1961.07671469939	160.535188779019	3120.89740262158	1400.01119679025	132.620246899001	2758.13337702647	1340.57105109195	149.278704727177	2126.17608836075	746.448295872007	130.320755401264	1352.57491935368	960.32446016716	148	1277.2102367205	921.504776231894	143.662525372418	1688.59901847422	645.757043027294	162.355310636508	793.017096759183	1102.14736102413	155.116551824594	1786.36260019562	572.664558899743	149.230449203395	658.231799361214	1185.250879486	144	2218.89240882509	1340.76551472914	137.898917788843	2243.7724495791	988.187303027455	143.119607655062	2017.56019505492	1042.8856192823	148	1559.78833008778
405.9187442632	142.959820723185	734.130764680371	1370.68078615191	179.061156926116	2067.44179039319	1652.11368615462	143.219362643322	2853.62996964542	1960.91410701286	160.460426129789	3121.52168705706	1399.82787031801	132.604863520254	2758.61198603952	1340.3305823337	149.26332134843	2126.53672031974	746.352041840138	130.324478274546	1352.660074441	959.969791334751	148	1277.22335044456	921.030187091971	143.606620358096	1687.62088193204	645.299833431715	162.318345657877	792.658660157676	1101.53098337732	155.105732463407	1785.58489831978	572.336630061712	149.22419218108	658.04497931793	1184.49188127587	144.001327222897	2217.58665399987	1339.87052211547	137.917596325812	2242.1374004661	987.389173146672	143.109185075351	2015.83824024112	1042.64991482161	148	1559.82164480149
405.796360428039	142.953299073663	734.157988080705	1371.06076657549	179.083730897085	2069.62648508722	1651.68121717007	143.255609299509	2853.90169435061	1960.65110119117	160.3736357399	3122.28439749289	1399.45096583148	132.575914268036	2758.46532738116	1339.9436050387	149.237024504179	2126.52145756943	746.133175709639	130.320755401264	1352.34015384539	959.488384470609	148	1276.96458867496	920.46155584989	143.564680315064	1686.38484765002	644.782705128879	162.273858033964	792.19863318636	1100.80542459286	155.094153476797	1784.53208272422	571.99162993692	149.208050855597	657.842989015813	1183.76243864168	144.004650252251	2216.43788193813	1339.12544999106	137.938843073884	2241.05215018998	986.741588112407	143.112160371292	2014.68265783836	1042.58776544857	148	1560.38132120946
405.712717444332	142.937515850987	734.330187023763	1371.41732233612	179.105732463407	2071.89381417979	1651.27102561726	143.297121627481	2854.48049214777	1960.33682014056	160.286149311173	3123.18242228985	1398.92778673811	132.541220264567	2757.77426504583	1339.46845205673	149.203395865745	2126.20288950646	745.823807451043	130.31045555205	1351.67450490891	958.929811061679	148	1276.52235090886	919.840281175065	143.541678629033	1685.03376489092	644.236292407144	162.228069033316	791.722671058333	1100.01726052852	155.084936148072	1783.35340186207	571.646181006647	149.186018359229	657.656665528488	1183.11885755391	144.011749802608	2215.53283849566	1338.5833287408	137.95927654881	2240.59320592504	986.28283320205	143.124581816373	2014.16061362699	1042.72804844778	148	1561.46703406889
405.671708863807	142.917596325812	734.62735626671	1371.74873446212	179.125647181409	2074.13428075795	1650.92374962589	143.338975639408	2855.31109175246	1960.0182041225	160.207988804398	3124.17272565064	1398.32379709262	132.510708814856	2756.71840053799	1338.97626820412	149.166370632599	2125.70720530624	745.473584342037	130.296668066258	1350.7923997979	958.353535764802	148	1276.01212831262	919.219366591664	143.540377598582	1683.75278965713	643.690482500051	162.187629798524	791.310637089991	1099.21811383782	155.08144690238	1782.2294844081	571.316182983766	149.163850576568	657.516359729961	1182.6057026307	144.023779221956	2214.91533761471	1338.27310051367	137.976220778044	2240.73508928488	986.033262018985	143.142326853007	2014.25753298416	1043.07791202533	148	1562.9994511138
405.670339716682	142.898917788843	735.013333055107	1372.03001606224	179.142238939629	2076.1954150233	1650.65984564831	143.376179554639	2856.29961939375	1959.72949416823	160.148037129269	3125.18179469814	1397.70466100821	132.494565880257	2755.53243257246	1338.53234141758	149.129511685363	2125.18747441618	745.134397792324	130.283500427601	1349.86045552729	957.809797545869	148	1275.54586834197	918.645668129361	143.560811073508	1682.71994288642	643.16530981933	162.157842876797	791.017293225797	1098.44731885615	155.084936148072	1781.3192269505	571.012224059697	149.146093074189	657.442913692487	1182.24229825134	144.04072345119	2214.56379867742	1338.1900541212	137.988250197392	2241.34177853956	985.989268662532	143.161837614657	2014.86934880776	1043.61491192531	148	1564.82482198425
405.697966483604	142.8861026212	735.438746093804	1372.2094686996	179.15462082999	2077.91184059928	1650.46512828594	143.40356616029	2857.32452216569	1959.47082489668	160.113108723215	3126.11699726718	1397.11757735283	132.499671302846	2754.442652314	1338.17917942567	149.095480699693	2124.78186551335	744.844909800319	130.27388075164	1349.03634249635	957.327508312428	148	1275.20173701496	918.150777454564	143.600303081266	1682.04769675675	642.668491303125	162.139527180237	790.851611828364	1097.72262024065	155.094153476796	1780.70428171251	570.739472983316	149.134876927986	657.437106161729	1182.02343535486	144.061156926116	2214.40744150268	1338.30243683906	137.995349747749	2242.21285919236	986.128147652219	143.179704557167	2015.8433880837	1044.2979252242	148	1566.75613608118
405.738501138721	142.881540282327	735.852420761624	1372.22407390981	179.162239137273	2079.14390001195	1650.29489217405	143.41794217842	2858.26743906785	1959.21469066182	160.106009172858	3126.89326476063	1396.5797637688	132.529291176451	2753.62285907343	1337.92514685744	149.065807178367	2124.59184925627	744.618634774252	130.26876976683	1348.43559689808	956.904268235789	148	1275.00709666838	917.739865064961	143.654012723612	1681.75612545012	642.190551377171	162.13083890826	790.778930728957	1097.03197159617	155.105732463407	1780.36920048902	570.49391957857	149.129511685363	657.482767960737	1181.91149743831	144.082403674188	2214.34477225238	1338.54881537269	137.998672777103	2243.13075679221	986.404926056156	143.195235687953	2017.00919575144	1045.0635687769	148	1568.61246268094
405.775300610366	142.886102621199	736.213412046074	1372.02113394454	179.166134571274	2079.82217219481	1650.09433550734	143.417968370865	2859.04455986831	1958.91822803404	160.124257907312	3127.4676819232	1396.07918136488	132.5802973214	2753.18063917249	1337.74797226275	149.042050674087	2124.67402842577	744.443134670395	130.26801494858	1348.11412979456	956.511516026068	147.998672777103	1274.94360695221	917.397073293917	143.715867484646	1681.76294406256	641.714286269975	162.126974404306	790.72819101855	1096.34625677914	155.115224601697	1780.19961499392	570.269563115174	149.126974404306	657.547785719176	1181.8549980014	144.101082211157	2214.26775311363	1338.85963236103	138	2243.90821775767	986.769478345432	143.207265107301	2018.2174773205	1045.84796836833	148	1570.25443391663
405.793437672733	142.898917788843	736.49754757252	1371.57488738657	179.168216612421	2079.96213855179	1649.81379422494	143.404347170985	2859.62199667426	1958.5414115122	160.16128787806	3127.84828968579	1395.5851759369	132.644166006909	2753.13733961085	1337.6061850106	149.023779221956	2125.03310841994	744.286536444142	130.268422033417	1348.05774318824	956.10427479553	147.995349747749	1274.95397948889	917.087545224548	143.779657867194	1681.91703758313	641.217663135486	162.123109969924	790.619436295031	1095.62571526571	155.118459717673	1780.02669052514	570.057614804157	149.123109969924	657.599181553568	1181.79343142052	144.113897378801	2214.10049104695	1339.16438051821	138	2244.44076483298	987.168586323897	143.215777756107	2019.37905730915	1046.59239198071	148	1571.62109435536
405.7865741837	142.917596325812	736.703101382868	1370.90975648468	179.172348107746	2079.67062500764	1649.4406429266	143.38028485752	2860.03005338793	1958.07752324201	160.208592330198	3128.10675862109	1395.06622061468	132.710527659473	2753.4389128865	1337.45891085524	149.011749802608	2125.63022296106	744.10791595531	130.268780066652	1348.19303962743	955.637656315929	147.988250197392	1274.96267387475	916.772927828869	143.840039344837	1682.02235417789	640.683219456636	162.115224601697	790.379101609471	1094.83811882637	155.113897378801	1779.65606783941	569.852891715515	149.115224601697	657.606508748092	1181.67333562198	144.118459717673	2213.80414280738	1339.40467068224	137.998672777103	2244.7112529775	987.556189920091	143.220340094979	2020.46527803624	1047.25301407337	148	1572.72803640728
405.755536474047	142.938843073884	736.849067556439	1370.09674974744	179.183745439341	2079.12587675338	1649.00224748103	143.350919183205	2860.35652257948	1957.56019184119	160.257030264044	3128.36137428287	1394.50118888392	132.765782675539	2753.98921677355	1337.27888947829	149.004650252251	2126.40715640084	743.871218059966	130.265436822931	1348.41416019661	955.081552959894	147.976220778044	1274.90493973851	916.423288355073	143.892142147546	1681.90908109123	640.107226553959	162.102409434054	789.969948795574	1093.97461569023	155.102409434054	1778.94320898652	569.658121860401	149.102409434054	657.558331499398	1181.46204972232	144.113897378801	2213.38886345449	1339.54907745631	137.995349747749	2244.7891451315	987.904161404114	143.220080274945	2021.5096306649	1047.81191865811	148	1573.66156928704
405.709983485098	142.95927654881	736.969507571397	1369.24534083875	179.20787713231	2078.54313178223	1648.56187004132	143.320471046923	2860.72139355757	1957.05720655225	160.29816427484	3128.74881366971	1393.88706825843	132.80053722309	2754.66105334501	1337.05808914328	149.002654445794	2127.28928704042	743.554487523668	130.257183924587	1348.60472875716	954.428392343259	147.95927654881	1274.73748790678	916.025540511394	143.934170103957	1681.46323840406	639.501777625922	162.087053926439	789.397751870492	1093.05259101133	155.087053926439	1777.82045693364	569.482545739646	149.087053926439	657.463538438603	1181.16080417644	144.101082211157	2212.91566372968	1339.60270323781	137.988250197392	2244.812877956	988.208183334845	143.213914224921	2022.59313280724	1048.28381136774	148	1574.5605458926
405.666110259633	142.976220778044	737.105509037202	1368.49032287736	179.249119340425	2078.14702034538	1648.21383699403	143.293334737082	2861.26429068079	1956.67005593084	160.32651057327	3129.40777458584	1393.23881766626	132.807462898538	2755.33858926651	1336.8057744256	149.004650252251	2128.20980913716	743.154376279187	130.243409064164	1348.6697961082	953.696320240851	147.938843073884	1274.45490554225	915.587853083963	143.964470975436	1680.65140455037	638.894896134413	162.072906728724	788.709291257244	1092.11734650081	155.072906728724	1776.3133876483	569.341884298173	149.072906728724	657.344760384722	1180.80075478863	144.082403674188	2212.46359554688	1339.60023119845	137.976220778044	2244.93446409028	988.48536462999	143.20095130524	2023.80204359931	1048.70902979215	148	1575.57080460088
405.641044462905	142.988250197392	737.295608490926	1367.95715156899	179.309521448292	2078.12607581775	1648.05088199963	143.273095003344	2862.1047947425	1956.49657666876	160.33984102307	3130.43913648522	1392.58276712698	132.787830648674	2755.93471403141	1336.54171106001	149.011749802608	2129.11750984141	742.68620160821	130.226863782329	1348.55671099068	952.922092867894	147.917596325812	1274.08884306087	915.137278222643	143.983599945141	1679.52040813554	638.326206919325	162.064502673146	787.97999650979	1091.2335773436	155.064502673146	1774.53323821728	569.249857889111	149.064502673146	657.230375618386	1180.43866771764	144.061156926116	2212.10618717966	1339.6000621511	137.95927654881	2245.27264853036	988.770108159898	143.180943866686	2025.19801149996	1049.14700007078	148	1576.80957248528
405.650676487147	142.995349747749	737.569469445861	1367.74141290468	179.388029688479	2078.61473767195	1648.14477709061	143.259738361099	2863.32986692152	1956.61146899823	160.338106715335	3131.89830456431	1391.95757611123	132.746313583101	2756.40542110039	1336.29466921291	149.023779221956	2129.98150024709	742.184198175943	130.209367778671	1348.26364418756	952.161319710392	147.898917788843	1273.69962887439	914.713691592792	143.994022524852	1678.17721298728	637.836898986658	162.064502673146	787.292828487551	1090.47225925668	155.064502673146	1772.64491320828	569.218164203125	149.064502673146	657.144535466623	1180.13901925202	144.04072345119	2211.87843070155	1339.66262083206	137.938843073884	2245.86689168907	989.099778816562	143.15462082999	2026.78399490824	1049.65789611075	148	1578.33006348348
405.705783197376	142.998672777103	737.933647923642	1367.89035765035	179.481493592353	2079.65617034563	1648.52861384037	143.252611285892	2864.9518016616	1957.04686546699	160.323177244094	3133.75681871685	1391.39635994802	132.694106786823	2756.73862487406	1336.08835660137	149.04072345119	2130.79053081146	741.688838968142	130.196033854103	1347.82743127629	951.46685725177	147.886102621199	1273.35417254492	914.359784751704	143.998672777103	1676.74994516543	637.460164182826	162.072906728724	786.713535897981	1089.89535306764	155.072906728724	1770.81878618857	569.249392525481	149.072906728724	657.094337977019	1179.95206108231	144.023779221956	2211.74373219015	1339.82959587159	137.917596325812	2246.64295992589	989.50065370318	143.124861433113	2028.48012171442	1050.28364614812	148	1580.09285270348
405.805971462918	143	738.371123156607	1368.38179761133	179.583009080793	2081.19812088004	1649.17404810582	143.247564318199	2866.89626383323	1957.76450614907	160.298181430295	3135.90177822058	1390.92506412266	132.643188555251	2756.93276546656	1335.93912150712	149.061156926116	2131.53597954371	741.239986879847	130.189364106259	1347.30451029497	950.882760705371	147.881540282327	1273.10052351365	914.109100376068	144	1675.34184478564	637.210633019962	162.087053926439	786.267767412016	1089.54004595553	155.087053926439	1769.18023917706	569.335906067978	149.088381149336	657.061958367591	1179.89833455054	144.011749802608	2211.60283608212	1340.10976805296	137.898917788843	2247.43270117933	989.977055913574	143.094153476796	2030.14231619072	1051.03511950955	148	1581.97765385869
405.940219140868	142.998672777103	738.839545070746	1369.12798532175	179.683549817348	2083.08597159714	1649.99492052164	143.24008603481	2868.99743181474	1958.66273922683	160.266667095459	3138.13692376018	1390.54824601889	132.605403766253	2756.95813019123	1335.84561482735	149.082403674188	2132.18860573246	740.86406125134	130.190149854555	1346.73362783269	950.42724062022	147.886102621199	1272.94163003657	913.972717269943	144	1674.00373225032	637.075300427283	162.102409434054	785.932463873045	1089.40447422266	155.102409434054	1767.77685128946	569.458945813829	149.107059686304	657.005292747049	1179.95888833348	144.004650252251	2211.29501317053	1340.46910315752	137.8861026212	2247.99017597859	990.50450565841	143.065807178367	2031.57399932479	1051.8818528092	148	1583.79284755941
406.088005185652	142.995349747749	739.276334598515	1369.98585528479	179.774209448794	2085.07723478318	1650.86072284239	143.226729392565	2871.01394159237	1959.59143722593	160.231830077553	3140.20601642586	1390.24908051288	132.588719357054	2756.73045111385	1335.79363220674	149.101082211157	2132.68669683093	740.567109872377	130.197343921545	1346.10872798537	950.087984575395	147.897590565946	1272.81884974915	913.936876370721	144	1672.69575779607	637.016295238403	162.113897378801	785.625814759425	1089.44593441276	155.113897378801	1766.53833175189	569.589470809605	149.125647181409	656.856454417613	1180.07350265448	144.001327222897	2210.63551036952	1340.83413817966	137.881540282327	2248.04828449733	991.033590576547	143.042050674087	2032.57558134247	1052.75585773881	148	1585.31576858191
406.22034773987	142.988250197392	739.604352549653	1370.77751590941	179.846190543271	2086.84684911268	1651.6173439781	143.205513644112	2872.63764737702	1960.37831211908	160.196016698648	3141.80219679591	1389.98140093926	132.596972185825	2756.08822896238	1335.74811135291	149.113897378801	2132.91780033246	740.3295697846	130.206928780387	1345.35855382442	949.818319495144	147.911618850664	1272.60505746639	913.95854367678	144	1671.29459812116	636.972588643379	162.118459717673	785.220535377937	1089.5810482401	155.118459717673	1765.29152908359	569.692211659666	149.143566162526	656.533632957927	1180.15972226703	144	2209.43906901957	1341.11615242947	137.8861026212	2247.36228311707	991.504501592655	143.023779221956	2032.97156308022	1053.5695877737	148	1586.32501459937
406.306562530984	142.976220778044	739.742525278781	1371.31909154567	179.892663604245	2088.01753184185	1652.12303007406	143.176381527814	2873.53198120057	1960.86732022212	160.160598305138	3142.60179210292	1389.67247764028	132.627317419197	2754.78867759716	1335.6584611212	149.118459717673	2132.71524118732	740.105096265538	130.215241447818	1344.33844508151	949.542982261694	147.921115796128	1272.11180618767	913.971280150821	143.998672777103	1669.60692661981	636.869988843634	162.112570155904	784.562327265606	1089.69896239656	155.113897378801	1763.77938616243	569.728545370381	149.159271082241	655.952482569714	1180.12818078996	144	2207.56655664731	1341.22852688617	137.897590565946	2245.7681965257	991.860362519557	143.011749802608	2032.65659763533	1054.23397530457	148	1586.64655341583
406.319815008089	142.957949325913	739.6135290857	1371.44775734383	179.911792573951	2088.18947780406	1652.27154466027	143.141805662347	2873.36740371543	1960.94903403421	160.12618865601	3142.2964188247	1389.22564950186	132.672600218717	2752.5277057283	1335.46025149673	149.113897378801	2131.86910556166	739.826695192306	130.220080274945	1342.84553974276	949.166453909061	147.917770049098	1271.11288215943	913.894723065611	143.995349747749	1667.40059709588	636.634619040649	162.096431958906	783.490208747327	1089.67664119763	155.101082211157	1761.70163100562	569.660986994863	149.173988939881	655.038911309707	1179.89831510419	144	2204.92416442275	1341.10244787415	137.912946073561	2243.18879847334	992.05884575107	143.004650252251	2031.59526435767	1054.67385177589	148	1586.16549741197
406.23968981601	142.934192821633	739.153112146007	1371.04412746306	179.903388518372	2086.97824564804	1652.0102358875	143.106182896144	2871.85751732813	1960.57647368735	160.094153476797	3140.61634092191	1388.53024307429	132.721468996109	2748.96426826012	1335.08039973132	149.101082211157	2130.14475309671	739.413358684832	130.220340094979	1340.64048075503	948.587067549564	147.893990827142	1269.37041559369	913.64581503554	143.988250197392	1664.44523066641	636.200599789813	162.069326648683	781.865051123776	1089.3951774011	155.082403674188	1758.76870205388	569.45648360225	149.188586570333	653.741191273918	1179.42163414652	144	2201.48751182365	1340.71009953875	137.925766048379	2239.65744667069	992.086486348495	143.001327222897	2029.83201601244	1054.84890302189	148	1584.85096229017
406.055426394739	142.905846523204	738.312573469335	1370.03697606823	179.870112350952	2084.05573045181	1651.33387924022	143.072906728724	2868.78490827162	1959.75559284291	160.065807178367	3137.34966128395	1387.47239949752	132.762052561348	2743.76843921295	1334.44311581294	149.082403674188	2127.31191427614	738.781205676064	130.217104979004	1337.48431990354	947.710702572881	147.844863320374	1266.6693125345	913.151925471447	143.974893555147	1660.5499021162	635.521202153905	162.031400229013	779.588698794884	1088.75858572574	155.061156926116	1754.74642715807	569.091695731394	149.202962588463	652.038156539277	1178.68562428644	144	2197.29140525573	1340.06708057402	137.929519851706	2235.30077676639	991.959061653346	143	2027.47638170043	1054.75985823806	148	1582.75205651121
405.766451993346	142.875138566887	737.066917392303	1368.41344986686	179.815360615045	2079.20180915951	1650.27996538883	143.046700926337	2864.03628468264	1958.53680639781	160.043377896984	3132.37541503879	1385.9501815535	132.782893121112	2736.67902921974	1333.4787646461	149.061156926116	2123.18697489248	737.855977766265	130.211915359552	1333.18310552944	946.461976209702	147.769559196543	1262.8552138496	912.355964406663	143.953299073663	1655.59988437742	634.572197999033	161.982272722244	776.623307475679	1087.69928192726	155.04072345119	1749.49908889716	568.551261284696	149.215777756107	649.944729922293	1177.71251055246	144	2192.41213400939	1339.22497003061	137.917770049098	2230.3065004947	991.714658096504	143	2024.67038391304	1054.44144852893	148	1579.98210424934
405.382648928342	142.84537917001	735.418090926422	1366.21479064596	179.741388521285	2072.34841212468	1648.91433585861	143.029756697104	2857.62287856069	1956.99583655019	160.028429474207	3125.68900384868	1383.8992003813	132.778776525267	2727.55930102874	1332.14120166044	149.04072345119	2117.6667368124	736.589235634273	130.206985490561	1327.62618426505	944.804125410967	147.67180001474	1257.86288157777	911.225300687504	143.922443019025	1649.57128269985	633.353121037924	161.921115796128	772.994186497386	1086.18937748197	155.023779221956	1743.00702305184	567.830753225984	149.224642613818	647.5086780095	1176.55768218888	144	2186.95966191062	1338.26530845879	137.885586771564	2224.9013501959	991.407225527189	143	2021.57350132616	1053.960807427	148	1576.70574463858
404.922240778627	142.820383356211	733.395624530644	1363.53170988295	179.649772255973	2063.60215565382	1647.31731892594	143.023499605216	2849.68786709336	1955.21999185051	160.023499605216	3117.41062410571	1381.30848875152	132.750165669202	2716.43939399314	1330.42136397529	149.023779221956	2110.76321423204	734.968589250483	130.20481100202	1320.81587758549	942.74536691038	147.559229858837	1251.73544773207	909.755803956403	143.882067301247	1642.54206230915	631.886658174663	161.847116177518	768.79244118312	1084.23943931644	155.011749802608	1735.37530097035	566.936775777524	149.226729392565	644.807113906387	1175.28686582322	144	2181.05462594962	1337.27033089259	137.832043345556	2219.30748696223	991.087264695771	143	2018.32850047029	1053.3903274152	148	1573.10908452378
404.41066367282	142.803698947011	731.061476787124	1360.4953100086	179.541502581081	2053.25960322673	1645.57557112585	143.028429474207	2840.5136069329	1953.29449978199	160.028429474207	3107.80384842894	1378.23784749016	132.701821269479	2703.56379099888	1328.36405830117	149.011749802608	2102.63545743943	733.027026506278	130.2058840952	1312.89289093207	940.350908855072	147.439442918267	1244.63958942675	907.975259275435	143.834415115697	1634.69060677556	630.219059613282	161.760181164076	764.165119213427	1081.90231908448	155.004650252251	1726.8273682419	565.89079961465	149.219629842208	641.939851863107	1173.97294997364	144	2174.82054448881	1336.31776467201	137.760181164076	2213.71643751852	990.797027585289	143	2015.04870304175	1052.80334408712	148	1569.37451374227
403.876343817874	142.797835577687	728.500837894694	1357.26057938517	179.416641147968	2041.7740899998	1643.76743341415	143.042050674087	2830.48563938277	1951.29436455722	160.042050674087	3097.24378732982	1374.81436532204	132.642838784012	2689.36700364925	1326.0641373356	149.004650252251	2093.57781492657	730.841912665062	130.210583329481	1304.1207773197	937.734282915184	147.322222510112	1236.84421457434	905.94570581099	143.782895020996	1626.27998952808	628.416781823178	161.66163929289	759.300235813182	1079.26729049956	155	1717.68206716004	564.730318761087	149.202190614758	639.02079652287	1172.68147425673	144	2168.39166986048	1335.46269108386	137.678039347749	2208.29093512731	990.561586984924	143	2011.82185264654	1052.25620118782	148	1565.67401140619
403.349273010045	142.803698947011	725.818614737567	1353.99966229057	179.27746373897	2029.70700742958	1641.96969649744	143.061156926116	2820.06020808275	1949.29016941062	160.061156926116	3086.18898926022	1371.21942026017	132.583026236247	2674.43227072362	1323.65799611608	149.001327222897	2083.98879934103	728.524592476021	130.219014909909	1294.86199926089	935.045773446635	147.214040748598	1228.69205482126	903.757106140327	143.733329429772	1617.62605807876	626.562157302952	161.554667519964	754.402990317501	1076.45296439034	154.995349747749	1708.31133301111	563.507224006496	149.175054304917	636.164495229705	1171.46770470623	144	2161.91688143103	1334.73864869556	137.596174019676	2203.16555599094	990.38981109509	143	2008.71669817112	1051.78733482174	148	1562.15730459308
402.855306155201	142.821710579108	723.131379750612	1350.87740497914	179.128306434376	2017.66472308932	1640.24528352164	143.083730897085	2809.72192692158	1947.3409173144	160.083730897085	3075.14169395524	1367.66724853471	132.529835350826	2659.43715079524	1321.3083662181	149	2074.33297311285	726.208547626825	130.228859588786	1285.54161468049	932.454099427861	147.119607655062	1220.5629226905	901.523133425631	143.689539710349	1609.07328026026	624.748317751263	161.445332480036	749.675188678135	1073.5976261762	154.988250197392	1699.1073209937	562.284426365095	149.141805662347	633.475788821887	1170.37642495625	144	2155.56746242428	1334.158387498	137.527562430938	2198.45503642672	990.279793219507	143	2005.79689207664	1051.4165963958	148	1558.95064844522
402.417709009241	142.85002942226	720.554577120957	1348.04413915879	178.975676603669	2006.21539180145	1638.65112498087	143.105732463407	2799.92321761788	1945.50211387471	160.105732463407	3064.58382993484	1364.37042530347	132.487898782562	2645.05748402162	1319.17468684132	149	2065.07538015704	724.031055809406	130.238865676827	1276.59058958588	930.121034815818	147.041506499712	1212.82333746042	899.368233631165	143.655508724679	1600.95612740127	623.070443282182	161.339687930007	745.294392395974	1070.84658371689	154.976220778044	1690.43897037152	561.129878804429	149.106182896144	631.040220548703	1169.44824933432	144	2149.54311048728	1333.72519518583	137.483074807025	2194.26676068867	990.227067873819	143	2003.13544656929	1051.15418409998	148	1556.1571320784
402.052348885361	142.886888369495	718.193904348579	1345.62281395539	178.82959114016	1995.8355442838	1637.23989264869	143.125647181409	2791.05164894536	1943.83072788422	160.125647181409	3054.94287913481	1361.51327614124	132.458409505541	2631.89529992012	1317.3945815102	149	2056.63295853358	722.11595842339	130.247564318199	1268.40175878743	928.181917339347	146.980349573596	1205.78781638346	897.418088049517	143.63276597554	1593.57523529755	621.6192000585	161.244469088175	741.398091303622	1068.34107834258	154.95927654881	1682.62212459523	560.109423926429	149.072906728724	628.919250412875	1168.72069918074	144	2144.05892015569	1333.44082273667	137.470259639381	2190.69860202296	990.232484205872	143	2000.8155408436	1051.0066259964	148	1553.85560796232
401.768998643534	142.92962574516	716.132753221898	1343.70147374385	178.700190155424	1986.85650545106	1636.05983614197	143.142238939629	2783.38520887111	1942.38269630206	160.142238939629	3046.53984995622	1359.22631359413	132.440863616763	2620.43275834172	1316.06264007287	149	2049.34105508012	720.560388979116	130.255158866772	1261.29859392846	926.728472753589	146.935323603567	1199.69892692455	895.782836690582	143.621549829338	1587.17609041774	620.468324763575	161.16463362509	738.080826472383	1066.20283142284	154.938843073884	1675.90376208429	559.27529316054	149.045373703441	627.152867873872	1168.23187974938	144	2139.33304015035	1333.31351879151	137.491506387453	2187.84247808418	990.30708304636	143	1998.93270901313	1050.98453575772	148	1552.10347900586
401.572327139457	142.974916272823	714.431805824658	1342.33209134663	178.597234043686	1979.4659360899	1635.15585798419	143.15462082999	2777.09713209191	1941.21516623071	160.155948052887	3039.59003275301	1357.58109193936	132.433396536288	2610.9779296441	1315.22795979521	149	2043.41660325805	719.428239154732	130.26225841713	1255.50267832291	925.809581639735	146.904895263991	1194.70798868785	894.54705819905	143.621169833475	1581.94065729097	619.669336678539	161.102663425828	735.394271917462	1064.52573137486	154.917596325812	1670.45468505996	558.664202072914	149.025106444853	625.764550196588	1168.01605512927	144	2135.56150842525	1333.35507013103	137.543433566992	2185.77033274792	990.469277753369	143	1997.5780259802	1051.10038040029	148	1550.93515966071
401.462940126956	143.019106252029	713.120078690008	1341.53228514358	178.528339917238	1973.70786901567	1634.56393827239	143.162239137273	2772.24623290765	1940.3784357628	160.166889389524	3034.18622411129	1356.59022516037	132.433824251349	2603.68892140372	1314.89821559355	149	2038.98041871847	718.749576611788	130.270016317258	1251.14269651089	925.430296001472	146.887429844096	1190.89162172269	893.764121398358	143.629168532529	1577.98030312733	619.2484936626	161.058450728946	733.355656689233	1063.3672781069	154.897590565946	1666.36687910644	558.294248396327	149.011749802608	624.764890053282	1168.10011645544	144	2132.88804316778	1333.58123812155	137.617680587782	2184.5190114702	990.74121154264	143	1996.81822265614	1051.36806239748	148	1550.35595333938
401.437919916793	143.058624452232	712.204713590784	1341.28933709879	178.497483862601	1969.53318843972	1634.30652407963	143.164807348377	2768.81395469848	1939.90728630036	160.176557150985	3030.33405736656	1356.22236914045	132.440770141163	2598.57969664403	1315.04995040165	149	2036.05429070756	718.524947980077	130.27826190512	1248.25719520024	925.567433179115	146.881540282327	1188.26015610756	893.452007996661	143.643738291848	1575.34456346719	619.207609695235	161.029756697104	731.961128963703	1062.7490027524	154.881452368949	1663.67229499479	558.166546514223	149.004650252251	624.161693065088	1168.49833059744	144	2131.40611575196	1334.00248697062	137.702883934741	2184.10467094401	991.141291253652	143	1996.7002157323	1051.79767406872	148	1550.3614447919
401.494433831568	143.089332408549	711.672311991722	1341.57099146332	178.50308056689	1966.82953433319	1634.39207671059	143.162239137273	2766.71957614156	1939.82156114741	160.186018359229	3027.96265065182	1356.41856209059	132.453605592748	2595.54963670448	1315.63935792212	149	2034.58009146598	718.732742806073	130.285366262651	1246.80933957425	926.178615483317	146.8861026212	1186.77641051647	893.595314684495	143.660850416108	1574.02973598317	619.527086934936	161.013077025505	731.196655428987	1062.65635197978	154.869790479719	1662.34997863446	558.268506952481	149.001327222897	623.959695832379	1169.20774612239	144	2131.1453205709	1334.62148326714	137.787286474299	2184.52042938158	991.677643077056	143	1997.23966628288	1052.39089227791	148	1550.93569037013
401.629629931014	143.10924712655	711.497464627595	1342.33256398536	178.541704821479	1965.46985053408	1634.81521595636	143.15462082999	2765.8552930705	1940.12269228409	160.19534428118	3026.96314759093	1357.10911692259	132.471498727703	2594.43120670742	1316.61576357369	149	2034.44773433205	719.337213789831	130.290996004386	1246.71466754233	927.215362135973	146.898917788843	1186.37812879788	894.155809962041	143.677945872149	1573.98181872644	620.175849118052	161.005977475148	731.043530109249	1063.051677186	154.862323399243	1662.33039839743	558.578490002795	149	624.158245347614	1170.20217562827	144	2132.06601615426	1335.42052419953	137.861263375233	2185.72743248842	992.340751053679	143	1998.41545285356	1053.1348104695	148	1552.05109069415
401.839518125351	143.117132494776	711.652105122615	1343.52403959395	178.606713833696	1965.34025378829	1635.55729544022	143.142238939629	2766.11609673794	1940.79466207075	160.203395865745	3027.2172011041	1358.23017168415	132.494459986804	2595.01253917825	1317.92939687763	149	2035.50877949135	720.298632645929	130.292536570932	1247.85279709786	928.632810106336	146.917596325812	1186.98406592534	895.07930509115	143.692455792808	1575.11456618941	621.116241414727	161.007304698045	731.482799028021	1063.87942698821	154.858194337653	1663.51673826843	559.071693898929	149	624.750344437607	1171.43939166251	144	2134.07378504722	1336.36849659211	137.919097271995	2187.6658936886	993.107108833639	143	2000.17730398798	1054.00597487111	148	1553.67358039646
402.119024147164	143.1138973788	712.105889641732	1345.09216327104	178.691204286632	1966.34767200113	1636.58956695782	143.125647181409	2767.39921308219	1941.80343398313	160.208050855597	3028.59422784725	1359.72564241203	132.520612845158	2597.07277942489	1319.53250993025	149	2037.6009005849	721.572640980081	130.289480602522	1250.08618092876	930.3900669708	146.938843073884	1188.50705914146	896.310932153311	143.701035521183	1577.32103630842	622.312855301959	161.017727277756	732.497204118013	1065.08343311171	154.856439399695	1665.79534447486	559.724181758905	149	625.720801329829	1172.86634162982	144	2137.03240773746	1337.42616551453	137.958493500288	2190.25947430335	993.94449699911	143.001327222897	2002.45306915437	1054.97671170104	148	1555.76374970933
402.460213023354	143.09975498826	712.828772757375	1346.98230659806	178.788872496144	1968.41773416166	1637.87293996216	143.105732463407	2769.60983207153	1943.10005773626	160.206814674564	3030.96047721085	1361.55051890593	132.547630242002	2600.38198647655	1321.37924336692	149	2040.54635533037	723.115224938621	130.281242763283	1253.26340080137	932.449135200142	146.95927654881	1190.84960783994	897.796016522317	143.704006009951	1580.4773973734	623.732111674807	161.041506499712	734.061458093456	1066.60589518487	154.856439399695	1669.03697700348	560.5128631001	149	627.041761291352	1174.42309820353	144	2140.76660086269	1338.54670197189	137.982272722244	2193.40454609631	994.813271388	143.004650252251	2005.1439273554	1056.0146867915	148	1558.26788790524
402.853831805443	143.077753421938	713.790500886405	1349.14370102716	178.89559475949	1971.48166660319	1639.36744145826	143.083730897085	2772.65056095106	1944.62848432458	160.197628275886	3034.16782211181	1363.66728152336	132.57204502648	2604.71800076103	1323.42586882833	149	2044.1629279286	724.88197365932	130.267452843755	1257.22959684475	934.774418378495	146.976220778044	1193.90891861231	899.48325485419	143.701556711844	1584.45143688796	625.341873432135	161.082229950902	736.141662438011	1068.39140832699	154.858194337653	1673.10834359346	561.414062070827	149	628.671962689253	1176.05335081895	144	2145.08927874658	1339.68708342493	137.994022524852	2196.9849097156	995.676663544997	143.011749802608	2008.13807994167	1057.09252678193	148	1561.12919466251
403.288093366253	143.049407123508	714.961021118135	1351.52418541423	179.00772690051	1975.46644032304	1641.02528566031	143.061156926116	2776.41966675665	1946.32134170155	160.179616643789	3038.05798460196	1366.04135251495	132.589508012639	2609.86301249403	1325.6263352472	149	2048.26257587037	726.828460286365	130.249293063712	1261.82651407412	937.326875345434	146.988250197392	1197.57150233421	901.327093357992	143.693656354086	1589.09432930758	627.110358830076	161.143386877018	738.685284062829	1070.39137363533	154.862323399243	1677.86288075594	562.404483885414	149	630.553304983557	1177.71092444095	144	2149.80656878033	1340.8112777887	137.998672777103	2200.86314559852	996.505105166295	143.023779221956	2011.30888016385	1058.19187385893	148	1564.27891373618
403.750162761913	143.015617006337	716.309254634731	1354.07388442776	179.123127125378	1980.28930372449	1642.79760216027	143.04072345119	2780.81087728019	1948.107336715	160.15462082999	3042.46525101618	1368.63475752007	132.597153775199	2615.62131471659	1327.93444024461	149	2052.66876038627	728.909660268043	130.22729149739	1266.90489872087	940.062611941158	146.995349747749	1201.72447070382	903.282078595409	143.682611113932	1594.24338943581	629.000833528261	161.225790551206	741.619985620061	1072.55676825775	154.869790479719	1683.14142324859	563.45797596222	149	632.612015146036	1179.35626466507	144	2154.72421134985	1341.88416699216	138	2204.87488338227	997.273251665643	143.04072345119	2014.514079868	1059.2958438539	148	1567.63429938174
404.226205898039	142.978405518516	717.799261541767	1356.73823985312	179.239448384836	1985.83870349606	1644.62860615628	143.023779221956	2785.69439826036	1949.90832215604	160.124861433113	3047.20901497896	1371.40584861279	132.59423477177	2621.82780590216	1330.30362580589	149	2057.22688983434	731.082964722816	130.202962588463	1272.33062664319	942.934147644686	146.998672777103	1206.25938370149	905.299894920238	143.670869039468	1599.72640456753	630.971542201054	161.326872762363	744.85658385692	1074.83701490636	154.881452368949	1688.77992272771	564.54400181932	149	634.766217387225	1180.96442713318	144	2159.66340776428	1342.8786812019	138	2208.84255334203	997.966350281831	143.061156926116	2017.61021253153	1060.39608871042	148	1571.10214471672
404.700773663322	142.938843073884	719.388680323787	1359.45567626417	179.354506770194	1991.97298777456	1646.45270037187	143.011749802608	2790.91834079486	1951.63869847599	160.095480699693	3052.1012609135	1374.30467254792	132.583273638428	2628.3455678695	1332.6875158794	149	2061.81362729306	733.30772867503	130.178400051946	1277.98503287307	945.888025996431	147.001327222897	1211.07230145776	907.331751944099	143.661198149521	1605.35887499645	632.974631697286	161.440770141163	748.289507702639	1077.17909002078	154.897590565946	1694.60039396004	565.631620737925	149	636.929498179596	1182.52058816195	144	2164.45744162794	1343.77458238866	138	2212.57460369123	998.57928708324	143.082403674188	2020.4518454203	1061.48839371514	148	1574.57286634311
405.156435385412	142.898467356106	721.025597554149	1362.15179919249	179.46507638204	1998.505747435	1648.19379938684	143.004650252251	2796.29350036736	1953.2076592685	160.070457430618	3056.94051370559	1377.27319239546	132.56615072711	2635.05692006257	1335.03774687576	149	2066.33579322748	735.542149709797	130.153988742237	1283.75959151482	948.865751194183	147.004650252251	1216.06342396306	909.323700191893	143.657243032414	1610.95164717961	634.956186550693	161.559229858837	751.800951825507	1079.52262185334	154.917596325812	1700.41760430015	566.686825813859	149	639.016714271615	1184.01817019428	144	2168.95702646613	1344.55835319735	138	2215.87961151501	999.11327493029	143.101082211157	2022.90625674698	1062.56986161841	148	1577.92086499867
405.575618552039	142.85952156055	722.645861422823	1364.73927585353	179.56739477423	2005.19843261187	1649.77026708719	143.001327222897	2801.59552681364	1954.52797349496	160.053800476695	3061.52035152978	1380.23540253136	132.545895934268	2641.82527538818	1337.29733940634	149	2070.70954803926	737.740176774266	130.130297433659	1289.5336767062	951.795438201235	147.011749802608	1221.11877016921	911.220691804336	143.661379334913	1616.31435986308	636.859256299781	161.67180001474	755.264331748454	1081.80231634863	154.938843073884	1706.04077297634	567.678087999465	149	640.949481815846	1185.44960129904	144	2173.01632440973	1345.21740713251	138	2218.56809640306	999.572130598784	143.1138973788	2024.84883324623	1063.6308353195	148	1580.99815294381
405.941891205032	142.824945695083	724.174604734199	1367.11928994066	179.658984847096	2011.75015562946	1651.10275145504	143	2806.55784492986	1955.5264826428	160.047558443912	3065.61863015632	1383.09498288251	132.523580900189	2648.4607299972	1339.39788178257	149	2074.84140023716	739.844324667934	130.107059686304	1295.15615596699	954.589447814429	147.023779221956	1226.09504964339	912.965261299519	143.67600948276	1621.26650231496	638.625272178128	161.769559196543	758.550065048654	1083.94842874237	154.95927654881	1711.28256705426	568.577586596432	149	642.661345673705	1186.80225786882	144	2176.51306320452	1345.74259299542	138	2220.48994628024	999.95903173548	143.118459717673	2026.19329811305	1064.65567099619	148	1583.6565453262
406.23820950005	142.799136608139	725.529826336856	1369.1824151834	179.738153405309	2017.81185588437	1652.11478801017	143.001327222897	2810.89155250163	1956.14513377739	160.053800476695	3069.01370569975	1385.7312099365	132.499394593396	2654.69532740859	1341.2557299813	149	2078.60453409005	741.7832067739	130.083730897085	1300.43093694932	957.140473955202	147.04072345119	1230.81005178534	914.502797533513	143.698757039074	1625.64179663005	640.197078468404	161.843536097477	761.531183094629	1085.89003175562	154.976220778044	1715.96302723282	569.361663441778	149	644.099407907187	1188.04939886022	144	2179.34456732579	1346.12452254308	138	2221.55281135946	1000.27126674519	143.1138973788	2026.89652637483	1065.61675262762	148	1585.7629086116
406.452557002254	142.785020410043	726.629477901343	1370.82459220708	179.803872670298	2023.01021213882	1652.75391587623	143.004650252251	2814.30923608557	1956.36106221221	160.070457430618	3071.4943013553	1388.00540296776	132.470960381588	2660.19401349914	1342.77526472076	149.001327222897	2081.84087056021	743.47343655959	130.061156926116	1305.12321554757	959.328499964162	147.061156926116	1235.05046240752	915.780253860003	143.726569681097	1629.3012530805	641.521474170597	161.889340574892	764.093958408691	1087.5591880301	154.988250197392	1719.92523009369	570.013543931343	149	645.230222076352	1189.15011212741	144	2181.43935187575	1346.35293337781	138	2221.74350820783	1000.50070304216	143.101082211157	2026.96910017334	1066.4780488027	148	1587.22188099696
406.577628320655	142.783693187146	727.408075968449	1371.96032053845	179.857411289132	2027.00648030579	1652.9974534235	143.011749802608	2816.58483894806	1956.18566982958	160.095480699693	3072.9037073808	1389.78229861933	132.437185253948	2664.60057913903	1343.8703663518	149.004650252251	2084.38489988231	744.830652112295	130.04072345119	1308.99200744264	961.036353183447	147.082403674188	1238.59798700004	916.754960849228	143.754307079073	1632.14992098231	642.556910370877	161.90602024649	766.151205649102	1088.89647879153	154.995349747749	1723.05453639235	570.52512160463	149.001327222897	646.043637260876	1190.05230887092	144	2182.77615345296	1346.42144876709	138	2221.14844199235	1000.63283425005	143.082403674188	2026.48782280822	1067.20012603812	148	1588.00803724696
406.614145807467	142.794486355888	727.829502854476	1372.54238132587	179.899869048056	2029.55710849032	1652.86248812285	143.025106444853	2817.60217781968	1955.67174629089	160.12618865601	3073.17520706435	1390.95598422356	132.396876615741	2667.63024701465	1344.48322150086	149.011749802608	2086.11389305206	745.786293968072	130.023779221956	1311.84292807563	962.173752179057	147.102409434054	1241.27793003005	917.405377401906	143.776339645014	1634.15680689382	643.281381418097	161.897336574172	767.6618422203	1089.8637325938	154.998672777103	1725.30199573683	570.900551572975	149.004650252251	646.561473575721	1190.71366078835	144	2183.40383538776	1346.34396201376	138	2219.9607235014	1000.66309449694	143.061156926116	2025.59658815742	1067.75783995114	148	1588.18362968818
406.571942040317	142.813195892475	727.898579648149	1372.57585473894	179.932865598736	2030.56939055713	1652.41061297013	143.045373703441	2817.39231101649	1954.9087130136	160.160598305138	3072.35416416744	1391.47571814709	132.350377708604	2669.14724223818	1344.60407730204	149.023779221956	2086.99021759854	746.303948154327	130.011749802608	1313.58061896271	962.701243537241	147.119874853948	1243.00247794087	917.737049326705	143.78771418936	1635.37765808437	643.700381875316	161.870895399474	768.64307315882	1090.45219872132	155	1726.70916084387	571.159717970616	149.011749802608	646.841940327854	1191.11234468887	144	2183.44651806	1346.1545463663	138	2218.46019071535	1000.59617776585	143.04072345119	2024.49095329439	1068.14653011191	148	1587.90088858625
406.471022432787	142.834415115697	727.666126123945	1372.13070674611	179.957949325913	2030.1432500028	1651.74556980246	143.074233951621	2816.15679962212	1954.01709333891	160.197343921545	3070.62320907528	1391.37352605156	132.298426132702	2669.231074099	1344.2878500507	149.04072345119	2087.09458145695	746.398599455843	130.004650252251	1314.25490028471	962.649876470834	147.136186995429	1243.80802321131	917.793751692123	143.785959251402	1635.96299425631	643.852704605182	161.83643363983	769.181100185011	1090.69238697208	155	1727.41646313463	571.339516037012	149.023779221956	646.97717069422	1191.26287965207	144	2183.1140283568	1345.91746650811	138	2216.99324243592	1000.45755603558	143.023779221956	2023.40700844405	1068.3925948264	148	1587.39297673645
406.339334683999	142.853093652666	727.232097039226	1371.33452381586	179.976220778044	2028.59053737463	1650.99842281926	143.112160371292	2814.27367670189	1953.12819800696	160.237807552701	3068.31333262212	1390.76809535549	132.243001979326	2668.20071838489	1343.65231414913	149.061156926116	2086.63337563151	746.141873333047	130.001327222897	1314.07488728507	962.128493735912	147.155403878512	1243.86551315492	917.657292192186	143.771782868363	1636.15212770951	643.811793354132	161.805026169908	769.424074972831	1090.65900068258	155.001327222897	1727.66043623711	571.493058028816	149.042050674087	647.08626735916	1191.22167179734	144	2182.67656824869	1345.71425829716	138	2215.91501190343	1000.29005076005	143.011749802608	2022.58527451744	1068.55127561165	148	1586.93869725753
406.207889550164	142.864609122262	726.725615233955	1370.3555399712	179.988250197392	2026.38297955593	1650.30611541376	143.158205717205	2812.22571598623	1952.36484285215	160.283067150318	3065.84259715929	1389.85152008288	132.187345582126	2666.58630416288	1342.86109507064	149.082403674188	2085.92447716459	745.654869258656	130	1313.39306075026	961.30841497672	147.183312162058	1243.46648273227	917.443123936013	143.747361189258	1636.25178940964	643.679536415183	161.786435546318	769.566665305108	1090.46555567996	155.004650252251	1727.74887705344	571.683419066853	149.065807178367	647.298779376442	1191.08389933436	144	2182.43814650249	1345.63966725062	138	2215.53985674206	1000.15166007837	143.004650252251	2022.23987078759	1068.70219610301	148	1586.81679281838
406.10609521998	142.86757237012	726.287244541159	1369.38319957024	179.996676970646	2024.09071568082	1649.79397510752	143.211910552378	2810.53130607607	1951.82460859478	160.335037677756	3063.66499408291	1388.86152804411	132.134876927986	2665.05549853727	1342.09643666981	149.101082211157	2085.35104407696	745.092633175997	130	1312.657102163	960.401337738432	147.225790551206	1242.98171570923	917.280055468911	143.719190514	1636.59074707329	643.569092962537	161.788605297258	769.819885506084	1090.24651720642	155.011749802608	1728.01613394477	571.970995794212	149.095480699693	647.733850000477	1190.96849263567	144	2182.68999664121	1345.77981040075	138	2216.08876486808	1000.10495444066	143.001327222897	2022.52628111636	1068.93456754345	148	1587.2596737528
406.058644707348	142.862061541382	726.048084793252	1368.60061204556	180.004650252251	2022.29707084598	1649.55832082403	143.270016317258	2809.67243126098	1951.57309152555	160.393657392387	3062.21267890059	1388.04949207983	132.09091362322	2664.29313803291	1341.5338339815	149.113897378801	2085.28999168385	744.623115124686	130	1312.33149637146	959.62692395952	147.286947477323	1242.79369660145	917.291156700496	143.694736174802	1637.47829474631	643.588149545276	161.815987095734	770.379724573986	1090.13642980548	155.023779221956	1728.78330457973	572.404306415955	149.129511685363	648.485549347355	1190.99728544456	144	2183.67231756496	1346.19738604302	138	2217.66044257408	1000.20454930329	143.001327222897	2023.52292710945	1069.33072475219	148	1588.42129645989
406.081996214243	142.850573596635	726.107340183134	1368.16397011733	180.017727277756	2021.49917070232	1649.66169177227	143.329936992768	2810.00655100988	1951.64457565004	160.457714370397	3061.81734536653	1387.63767394967	132.058450728946	2664.90224402685	1341.31209864452	149.118459717673	2086.0608488513	744.398588141468	130	1312.82613640589	959.176056909696	147.367596213553	1243.24209558325	917.574267643442	143.680588977087	1639.1434319655	643.821785248042	161.868201620157	771.389055851572	1090.25380793737	155.04072345119	1730.29613255413	573.008647724462	149.167697855495	649.60043212949	1191.27290893477	144	2185.53366937714	1346.91891120343	138	2220.2181678621	1000.48890366543	143.005977475148	2025.22100874267	1069.9531262122	148	1590.35312666681
406.18376839423	142.836166578886	726.519773062859	1368.18343137369	180.041506499712	2022.03573187341	1650.12857035867	143.386969664469	2811.72107771587	1952.04696563989	160.523580900189	3062.66727223963	1387.78532599477	132.040179276815	2667.29623912648	1341.51182706267	149.113897378801	2087.86444001524	744.531234582751	130	1314.42553302479	959.181827159874	147.46454936312	1244.56093884022	918.185820209458	143.682610975989	1641.71166007686	644.318543986335	161.939641240033	772.922000496579	1090.68022552391	155.061156926116	1732.70572259762	573.782713812535	149.208046117996	651.079729390866	1191.85518812937	144	2188.32044663614	1347.92309853115	138	2223.61166418902	1000.96801670784	143.017727277756	2027.53888844715	1070.8269284301	148	1593.01175901766
406.362057815123	142.823618472186	727.287934372487	1368.71019078783	180.082229950902	2024.0431370053	1650.94616111933	143.436822531005	2814.81018682865	1952.76247855581	160.586248934369	3064.7811118672	1388.5716561503	132.036856247461	2671.64217066288	1342.15441020055	149.101082211157	2090.75407916777	745.080553555654	130	1317.24748179301	959.704306342752	147.570979661445	1246.84893430503	919.136205519963	143.702616735854	1645.18523867887	645.086855754895	162.020433474926	774.973654328807	1091.45685261484	155.082403674188	1736.04609806892	574.700641184513	149.248774306787	652.879977118616	1192.75406038664	144	2191.97404012045	1349.14917862913	138	2227.61221527587	1001.62558742911	143.041506499712	2030.34084282525	1071.94157844348	148	1596.27962877791
406.606557265864	142.816514114655	728.368433833736	1369.73234978232	180.143386877018	2027.44818633848	1652.0677672418	143.474970042946	2819.08467189964	1953.75098444336	160.640130686957	3068.01448852354	1389.98023143191	132.045373703441	2677.83926795835	1343.19147790066	149.082403674188	2094.62543483446	746.042487285976	130	1321.22941266323	960.720199817375	147.677777489888	1250.05577142936	920.391949716853	143.737979682022	1649.45195181359	646.097736555765	162.098549737273	777.469065045941	1092.58309727818	155.101082211157	1740.24200076423	575.716407543911	149.287100570386	654.924331803971	1193.92773402572	144	2196.35641934405	1350.50339432505	138	2231.96523639863	1002.41989524167	143.082229950902	2033.47049586788	1073.25000703864	148	1599.99793596821
406.899809034684	142.816514114655	729.683124068253	1371.17998252224	180.225790551206	2032.01113191589	1653.41929608772	143.497289884198	2824.23048879625	1954.95316485862	160.678321664263	3072.10767210859	1391.91160449243	132.062484149013	2685.56474170266	1344.52406830621	149.061156926116	2099.25758035702	747.353907076034	130	1326.1597577415	962.135675214647	147.775536671691	1254.00831461418	921.886288974611	143.784222243893	1654.30711235427	647.29177828355	162.162506336159	780.281110324322	1094.02066266319	155.113897378801	1745.12153084556	576.775333375096	149.320755401264	657.115989438568	1195.2897239455	144	2201.26010954091	1351.87319885514	138	2236.41459825359	1003.28949584293	143.143386877018	2036.76459246849	1074.67588469927	148	1603.9866325125
407.219912330293	142.824945695083	731.130775514025	1372.93451713241	180.326872762363	2037.36179517008	1654.90585960047	143.500779129891	2829.83648508694	1956.28892467241	160.696014817844	3076.7079692971	1394.20331747939	132.083730897085	2694.3321299819	1346.02206334175	149.04072345119	2104.35191489753	748.908259537822	130	1331.71912390525	963.807452391639	147.856613122982	1258.44644530494	923.530069538844	143.834415115697	1659.49910315369	648.594090354852	162.203927622267	783.258642211395	1095.69951625703	155.118459717673	1750.45603923879	577.821768681964	149.346506033313	659.354417342209	1196.73144134706	144	2206.44883028743	1353.14987866159	138	2240.74194527094	1004.16842626049	143.225790551206	2040.07790214897	1076.13077945756	148.001327222897	1608.0707893915
407.542807086302	142.840816831137	732.604110862171	1374.84744323108	180.440770141163	2043.06782275259	1656.41866639211	143.485514594567	2835.4658210765	1957.6638250532	160.692779701868	3081.43460056258	1396.65004244062	132.107059686304	2703.56097837043	1347.53679542809	149.023779221956	2109.57715825444	750.569771755525	130	1337.5332265257	965.562457546917	147.917770049098	1263.06245228525	925.224801485515	143.882067301247	1664.75677383189	649.921707945108	162.220607293865	786.243243230033	1097.52836571377	155.113897378801	1755.97543494375	578.806377278387	149.362671685587	661.543908338917	1198.14150467013	144	2211.67449495182	1354.24491401512	138	2244.77093816704	1004.99443145515	143.326872762363	2043.28453266355	1077.52742408719	148.004650252251	1612.08489681557
407.842641376868	142.862323399243	734.000212914064	1376.74629681163	180.559229858837	2048.68257607921	1657.83641867961	143.453051769866	2840.69338445259	1958.96566559982	160.668829525973	3085.90956821426	1399.03110276883	132.130297433659	2712.63684999432	1348.91786916641	149.011749802608	2114.60081822597	752.19077563209	130	1343.21451361003	967.222938654509	147.958493500288	1267.54052324776	926.871633668954	143.922443019025	1669.80946246733	651.19087096858	162.214979589957	789.081117392618	1099.39727980688	155.101082211157	1761.38273865577	579.688153345831	149.368182583899	663.590871863209	1199.41692738805	144	2216.69902785172	1355.09274932326	138	2248.36944760731	1005.71463407525	143.439442918267	2046.28332997	1078.78627853956	148.011749802608	1615.87793758939
408.094441052285	142.887167986235	735.22480696319	1378.4487403927	180.673127237637	2053.77547848312	1659.0333272134	143.408211605367	2845.13874979015	1960.06990083483	160.628551700346	3089.7830668004	1401.13075310913	132.153988742237	2720.94240655895	1350.02373435779	149.004650252251	2119.09613040819	753.628510428458	130	1348.38848035468	968.621465092038	147.982272722244	1271.5743848825	928.373284491412	143.953299073663	1674.3954370741	652.320357897587	162.193908465056	791.623966459891	1101.18364184541	155.082403674188	1766.36222117636	580.43139328638	149.362671685587	665.401220873115	1200.46819744639	144	2221.28362512297	1355.64788299701	138	2251.41574626347	1006.28564925445	143.554579606586	2048.97289699635	1079.83657670847	148.025106444853	1619.29330793019
408.272585025004	142.912946073561	736.19476622082	1379.76768213832	180.772882225897	2057.94151237878	1659.87979655767	143.3569513307	2848.46827375934	1960.84108682343	160.577031605645	3092.72892609939	1402.75075285817	132.179727274843	2727.87021840951	1350.72723126725	149.001327222897	2122.74195233355	754.751371572481	130	1352.69989478388	969.610138106002	147.992695301956	1274.87304671971	929.633751142657	143.97356633225	1678.25200893106	653.228188154824	162.167339822261	793.722384074559	1102.75361255228	155.061156926116	1770.57362985349	581.003403413691	149.346506033313	666.872505541207	1201.22442969593	144	2225.1988681737	1355.88325797519	138	2253.78939844464	1006.6753427282	143.660050212132	2051.2542923261	1080.62159646544	148.045373703441	1622.17166383173
408.350950945505	142.93618862809	736.832703308958	1380.51657683734	180.850635647835	2060.81006226463	1660.24453014328	143.306177429575	2850.40129422659	1961.13280229423	160.520091654497	3094.44289660594	1403.71976263959	132.20894006361	2732.82846893358	1350.91708975777	149	2125.20750064901	755.445418621377	130	1355.81282808532	970.062401446103	147.992695301956	1277.15999455716	930.55798238096	143.983599945141	1681.09856987173	653.830735716365	162.142603828496	795.215641908725	1103.9646775922	155.04072345119	1773.64886870796	581.367414200422	149.320755401264	667.887572415824	1201.6270311865	144	2228.20936323427	1355.77919711132	137.998672777103	2255.3520405905	1006.85840862716	143.74445275169	2053.0127648419	1081.09309285746	148.072906728724	1624.34578225133
408.305861596405	142.954626296559	737.065709770564	1380.53075141769	180.900042771343	2062.04151242489	1660.01988485731	143.26025231085	2850.69809775657	1960.81884772137	160.46120361609	3094.63114997001	1403.90369622108	132.243691552249	2735.26325736425	1350.50529794107	149	2126.16248858013	755.619077787121	130	1357.41376624863	969.877694144871	147.982272722244	1278.17573329215	931.048782670551	143.982272722244	1682.6357234391	654.0410892429	162.124332376365	795.932236523266	1104.67181678726	155.023779221956	1775.20446037392	581.481335989247	149.287100570386	668.318812415355	1201.63004977797	144	2230.07024636827	1355.32162238339	137.995349747749	2255.94045750868	1006.81679992996	143.798162394036	2054.11556443651	1081.214513853	148.106182896144	1625.64622049123
408.118835185739	142.964470975436	736.82953597317	1379.68623454439	180.915659777679	2061.35281281869	1659.13543638649	143.221930854425	2849.18125263275	1959.80531240889	160.402874721112	3093.03255867539	1403.21359003156	132.284822088276	2734.69518279615	1349.43623139721	149	2125.2967795326	755.206759882682	130	1357.22488204344	968.983296465301	147.958493500288	1277.6890560382	931.011200964051	143.970243302896	1682.56357273823	653.774513090033	162.111955223605	795.701824722911	1104.73793732043	155.011749802608	1774.88006309556	581.299068699944	149.248774306787	668.044023793712	1201.19413928172	144	2230.54512737652	1354.49824953545	137.988250197392	2255.38665695169	1006.53542202006	143.81510662327	2054.42579231255	1080.95919915976	148.141805662347	1625.92398144082
407.780824645777	142.964470975436	736.077968138444	1377.92195015591	180.894065296195	2058.55362005178	1657.57507570253	143.191995834377	2845.7576360085	1958.05646112639	160.346616664367	3089.45580646308	1401.61230411945	132.331955516901	2730.78059656512	1347.69282070092	149	2122.36280293155	754.174635314987	130	1355.03275949329	967.342390291709	147.917770049098	1275.52159878953	930.368733365374	143.947526746202	1680.62356903563	652.962922185202	162.101082211157	794.382338837668	1104.05737248609	155.004650252251	1772.3940481903	580.781535192188	149.208046117996	666.970396813887	1200.2951850467	144	2229.42861397352	1353.30578127783	137.976220778044	2253.54730041255	1006.00879423249	143.793859875198	2053.81859548093	1080.31770480373	148.175054304917	1625.07442051705
407.292057779779	142.954626296559	734.791143832808	1375.25322372786	180.832908370079	2053.58426576181	1655.37911273269	143.167697855495	2840.43448138322	1955.59712573208	160.292559288608	3083.80857710374	1399.12250265208	132.381795917692	2723.39535865419	1345.303708138	149	2117.24083919168	752.525513683691	130	1350.73250498032	964.96176988532	147.856613122982	1271.58952421921	929.073580155107	143.915063851928	1676.6508258395	651.56946867767	162.084345829384	791.889441132975	1102.57256421196	155.001327222897	1767.60136409554	579.906605247756	149.167697855495	665.060817172519	1198.92975902527	144	2226.58480217781	1351.7586810192	137.95927654881	2250.34489664552	1005.24247872343	143.73780363407	2052.20950139771	1079.30350662963	148.200863391861	1623.06532752383
406.667658564121	142.93618862809	732.991697977924	1371.78960334739	180.731375726185	2046.56842328396	1652.65481061317	143.14688919188	2833.36525640883	1952.52815886935	160.241042668676	3076.16643110196	1395.83319374524	132.428390950576	2712.67635925554	1342.35071202756	149	2109.97208740717	750.306317770129	130	1344.36257538564	961.904305096658	147.774209448794	1265.93256560223	927.127765591776	143.876872874622	1670.63662699397	649.604456890019	162.055284267424	788.236144150761	1100.29778930763	155	1760.55744101836	578.680146350204	149.129511685363	662.355083442945	1197.12078458411	144	2221.99605781326	1349.89295046416	137.938843073884	2245.81295745081	1004.25765368809	143.654334594846	2049.58748197156	1077.95453989257	148.214979589957	1619.96322798288
405.936889508239	142.912946073561	730.752153610087	1367.72694192049	180.590897286735	2037.83660757844	1649.55965317522	143.126974404306	2824.86096765504	1949.01101567104	160.192781582672	3066.80076834189	1391.90295926803	132.464272653669	2699.08315371509	1338.97120931053	149	2100.81686560928	747.611651677966	130.001327222897	1336.14562474375	958.297008930871	147.673127237637	1258.75066795603	924.593670991059	143.83643363983	1662.76631461692	647.137133075161	162.012017001494	783.551700968202	1097.32776321424	155	1751.54430994566	577.146318118366	149.095480699693	658.979575686401	1194.93135059249	144	2215.78553245753	1347.77388521478	137.917596325812	2240.10873809044	1003.09393513624	143.553340297067	2046.02567960292	1076.33916701782	148.214979589957	1615.9361002506
405.14190491658	142.887167986235	728.192464096953	1363.33341173496	180.415842981819	2027.90821699159	1646.28744326124	143.105732463407	2815.36877727835	1945.25593523889	160.147783137494	3056.16443554631	1387.55501610684	132.482196372387	2683.38451368749	1335.35239932884	149	2090.25603829618	744.584678553351	130.004650252251	1326.49641820912	954.331648964545	147.559229858837	1250.41119575493	921.605249603826	143.79904869476	1653.43233162695	644.302453294024	161.957521610852	778.087386884217	1093.84302892625	155	1741.06492972743	575.391727333678	149.065807178367	655.140593198051	1192.46673655157	144	2208.24288401284	1345.49976096805	137.898917788843	2233.53034534979	1001.81160009403	143.445332480036	2041.69949461079	1074.55440375159	148.200863391861	1611.25248061316
404.334431452182	142.860996176347	725.468132212507	1358.92598396543	180.214979589957	2017.43763180877	1643.05371086331	143.083730897085	2805.42521544482	1941.50291054708	160.107510119041	3044.84391257939	1383.06238060227	132.478327130832	2666.59997777682	1331.71596348916	149	2078.954456647	741.408789226805	130.011749802608	1316.00089610222	950.257030882441	147.440770141163	1241.42872380001	918.353862215795	143.768708268562	1643.20185331865	641.285199903053	161.898917788843	772.193741123828	1090.08986388387	155	1729.79056472052	573.534658270166	149.042050674087	651.100749032696	1189.87290569253	144	2199.80465437505	1343.19558924199	137.884775398303	2226.49045197902	1000.49011101277	143.339687930007	2036.87217021312	1072.72214089699	148.175054304917	1606.25369163912
403.570493577489	142.834839355989	722.75614226245	1354.82917695352	180	2007.1474395416	1640.06851778755	143.061156926116	2795.6175349923	1937.99509165059	160.072906728724	3033.511691913	1378.73112036155	132.452785104831	2649.89097147134	1328.30376321367	149	2067.6856091703	738.297312863946	130.023779221956	1305.36027559521	946.358725609861	147.326872762363	1232.41274884901	915.078806351688	143.748426020443	1632.7608916783	638.307385672418	161.846177336159	766.282766281614	1086.35846938608	155	1718.4875283977	571.715459857933	149.023779221956	647.146733816191	1187.32317219829	144	2191.01613013569	1341.00103226053	137.876890030076	2219.465290368	999.218725317395	143.244469088175	2031.86919903738	1070.97507465049	148.141805662347	1601.31546951763
402.901842868816	142.807218417328	720.229051047348	1351.3289918835	179.785020410043	1997.71638120888	1637.51284879505	143.04072345119	2786.4984032135	1934.94413630848	160.045373703441	3022.82051250721	1374.86702505551	132.411019006281	2634.42907665891	1325.34985877462	149	2057.23953730257	735.471685158657	130.04072345119	1295.31184591746	942.927526401201	147.225790551206	1223.99738384194	912.032530053093	143.73973461998	1622.82528083432	635.596427319634	161.808366354716	760.768393281519	1082.94586317052	155	1707.91355339879	570.075921229049	149.011749802608	643.548913759029	1185.00146511884	144	2182.45998447629	1339.05691176869	137.874352818591	2212.92435785652	998.088356701079	143.16463362509	2027.03068411448	1069.44607470167	148.106182896144	1596.79259215555
402.36807270084	142.775007614943	718.033224270515	1348.6349766936	179.585484241078	1989.68658688248	1635.51678849074	143.023779221956	2778.51849019183	1932.50776974007	160.025106444853	3013.31649736587	1371.73192476818	132.361341762917	2621.22625718882	1323.0437569841	149	2048.29844113146	733.128048262627	130.061156926116	1286.52612818482	940.213760028476	147.143386877018	1216.7449003441	909.4476334824	143.741214797998	1614.05576432631	633.353659291112	161.790094902586	756.015346515077	1080.11195392785	155	1698.73538876521	568.736879941747	149.004650252251	640.532025147023	1183.0737133231	144	2174.69724413322	1337.48297506676	137.875138566887	2207.2786742065	997.178224014602	143.102663425828	2022.68050616823	1068.24759943551	148.072906728724	1592.98522969553
401.990839122021	142.73561138665	716.270047689231	1346.84619146255	179.415080188412	1983.39967638861	1634.14008153493	143.011749802608	2771.98622653387	1930.76181579789	160.013077025505	3005.38386320198	1369.51256343907	132.314843343015	2610.99478641599	1321.50821167443	149	2041.33491771685	731.414010643401	130.082403674188	1279.50928984051	938.390757599214	147.082229950902	1211.06050829035	907.503652413569	143.749379713391	1606.96209768833	631.724657074192	161.790792737503	752.280325669165	1078.04589603957	155	1691.43558546656	567.782505908648	149.001327222897	638.244519448429	1181.66680306026	144	2168.17836234134	1336.3613826903	137.876872874622	2202.81009713245	996.544309516	143.058450728946	2019.07086401296	1067.45878449018	148.045373703441	1590.09418749836
401.773842874187	142.686209070316	714.98737639682	1345.94735376409	179.283697105777	1978.95722056746	1633.3779877696	143.004650252251	2767.03522190999	1929.70700682744	160.009300504501	2999.20298285545	1368.28043563342	132.281175149862	2604.05446823235	1320.77108712687	149	2036.54647990392	730.399682967913	130.101082211157	1274.53319403476	937.518557595248	147.041506499712	1207.13268223659	906.293703605577	143.759390608606	1601.85096704809	630.775144669733	161.804764312047	749.688498730266	1076.83365102654	155	1686.2759846443	567.244702083392	149	636.746816493224	1180.84603886128	144	2163.20528827091	1335.7201567665	137.876358924871	2199.65248480463	996.207994546554	143.029756697104	2016.36467177348	1067.11071971812	148.025106444853	1588.21139717294
401.701258016696	142.628103305436	714.176422020613	1345.81576764163	179.197970402235	1976.2336065245	1633.15970380565	143.001327222897	2763.63366647121	1929.26895403186	160.014404248402	2994.75742897637	1367.98294586184	132.267841225293	2600.31474256547	1320.76352702318	149	2033.85474849043	730.065644548869	130.1138973788	1271.60974001328	937.532341456035	147.017727277756	1204.91560890249	905.816805283593	143.765637448563	1598.79097534918	630.484141976481	161.822237598028	748.220995648557	1076.4526970441	155	1683.27585653557	567.105170179817	149	636.011983409151	1180.60409460268	144	2159.88807302338	1335.5259446751	137.872222622371	2197.77301702218	996.153401244734	143.013077025505	2014.61233487408	1067.18127016593	148.011749802608	1587.31293387506
401.744325475964	142.565207333984	713.782195674007	1346.24817874978	179.158687574343	1974.92397597011	1633.36650018877	143	2761.60845644829	1929.31729530566	160.029756697104	2991.86405139183	1368.44794346961	132.278670889842	2599.31246164268	1321.32942812408	149	2032.93245098884	730.306287800666	130.118459717673	1270.49906675243	938.25295142223	147.005977475148	1204.14873270843	905.97877951299	143.764564355383	1597.62473367236	630.749985148732	161.832289726651	747.730324242838	1076.77853678722	155	1682.23509841006	567.299508773703	149	635.93777450214	1180.87125180184	144	2158.16256677658	1335.69718309011	137.862061541382	2197.01284252378	996.335802895539	143.004650252251	2013.76896887054	1067.60664069297	148.004650252251	1587.28686200461
401.866652535308	142.504848574017	713.715559982069	1347.00020019906	179.162441377671	1974.61365855539	1633.84854523467	143	2760.68817290892	1929.68930557683	160.058450728946	2990.22458024574	1369.40984875417	132.312732805558	2600.32201463119	1322.24542614807	149	2033.28561000615	730.947379315071	130.1138973788	1270.77071766487	939.414559157739	147.001327222897	1204.41908972227	906.609862183276	143.755792769687	1598.01157241574	631.41086786402	161.828966697297	747.977133393016	1077.61085307926	155	1682.7839655808	567.730936863884	149	636.371688569019	1181.52468149069	144	2157.81686049767	1336.11398972549	137.845923344385	2197.12474866126	996.687130634734	143.001327222897	2013.71165982771	1068.29099773399	148.001327222897	1587.96226825914
402.02810101338	142.456379640553	713.874980988139	1347.82819823794	179.202794377772	1974.86895586073	1634.44867247201	143	2760.56425644551	1930.21398324217	160.101336202931	2989.50099584774	1370.56246355389	132.362928805848	2602.49221925029	1323.26516226574	149	2034.34867442566	731.777532029907	130.101082211157	1271.88620562544	940.71831404489	147	1205.24405236629	907.50084472104	143.740952940137	1599.4890356001	632.275240310974	161.807833349626	748.674369728406	1078.70996407016	155	1684.44614186412	568.288793190206	149	637.134628499726	1182.41494167291	144	2158.53360996017	1336.64368536506	137.824416776278	2197.82047211581	997.133765275378	143	2014.26468116392	1069.12818033673	148	1589.14086810716
402.194811585604	142.42902223844	714.162489843091	1348.53125511914	179.271693311394	1975.30924677875	1635.0273760416	143	2760.93495379834	1930.74238330889	160.158656149942	2989.36500219107	1371.61286898365	132.41938350714	2604.99445987031	1324.16120703102	149.001327222897	2035.58786201256	732.586614256895	130.082403674188	1273.29746562101	941.883549215233	147	1206.16103606733	908.439165049788	143.724809935965	1601.54664277692	633.157810614419	161.771684585589	749.537119286091	1079.84114518823	155	1686.70716206214	568.867524315291	149.001327222897	638.047898118405	1183.39168504407	144	2159.94168457622	1337.16408541283	137.79983925023	2198.81463708057	997.607249252554	143	2015.22666071885	1070.01923847497	148	1590.62568705041
402.339590506064	142.429536188191	714.496910980841	1348.98162453928	179.359693689872	1975.66038572184	1635.48242773469	143	2761.53882048744	1931.1669829037	160.226741810419	2989.53840408441	1372.33421314003	132.471489438335	2607.14573043421	1324.7644445778	149.005977475148	2036.57720305882	733.201188109689	130.061156926116	1274.53250392421	942.699478816853	147	1206.80241542501	909.246620307529	143.710786458422	1603.70898922959	633.909987941952	161.726569681097	750.328673292224	1080.81162540112	155	1689.09183960907	569.383065520184	149.004650252251	638.959857333428	1184.32938949876	144	2161.67655117504	1337.58674061295	137.775790663465	2199.86780152716	998.056807759713	143	2016.40298604696	1070.89308471728	148	1592.25193578644
402.447880860806	142.459295585069	714.823795205594	1349.13595054749	179.45814764768	1975.79268902691	1635.75706400642	143	2762.18721321644	1931.42895215573	160.299508653192	2989.8249818704	1372.60329547507	132.51141159489	2608.50283900333	1324.98833550147	149.016400054859	2037.05213454996	733.511782551499	130.04072345119	1275.2660667107	943.056692861216	147	1206.94807193469	909.806041582498	143.70314023038	1605.58757989283	634.439071711692	161.681379532557	750.888131395071	1081.49628677266	155	1691.21078336807	569.781235912611	149.011749802608	639.757908737271	1185.13965514142	144	2163.42254912801	1337.86140084698	137.755357188539	2200.80872046933	998.451022639124	143	2017.6263819587	1071.70772213848	148	1593.90166259105
402.515872779644	142.51581262833	715.122120304389	1349.03869256863	179.559229858837	1975.72520368872	1635.84965344843	143	2762.7794973019	1931.52638042487	160.367752781385	2990.12327469394	1372.41515984648	132.537184944615	2608.90485219086	1324.83881598347	149.035529024564	2036.93153103759	733.487485115764	130.023779221956	1275.35584655433	942.957991698916	147	1206.5486666582	910.074812004594	143.70314023038	1606.93028339555	634.719952225605	161.644515778148	751.147569761584	1081.85172765056	155	1692.80452454206	570.043661740542	149.023779221956	640.377877285904	1185.77995486824	144	2164.94553648397	1337.97993619456	137.742542020895	2201.54283329613	998.777874362499	143	2018.77226491446	1072.45345960497	148	1595.50965344369
402.550719909805	142.591523767425	715.39929128908	1348.79747433572	179.657076954018	1975.6036128564	1635.80069123441	143	2763.30650281857	1931.49865771801	160.423030445554	2990.42032493906	1371.87038532186	132.551611551554	2608.4749171328	1324.40171774012	149.065829896043	2036.31136683332	733.170801764834	130.011749802608	1274.84710665025	942.503869057123	147	1205.71579351321	910.08153663944	143.712113681318	1607.63598571121	634.788410998388	161.621454049873	751.126547757879	1081.91306603525	155	1693.75818028068	570.182308389812	149.04072345119	640.80353102996	1186.24873070087	144	2166.11711605062	1337.96590566762	137.73973461998	2202.04846231022	999.04095679194	143	2019.76973216206	1073.14379584094	148	1597.06012860979
402.566936079497	142.676712124852	715.684877277459	1348.55267916193	179.748693219329	1975.65104215225	1635.67523044737	143.001327222897	2763.82434357611	1931.40601710344	160.45962796364	2990.76449510356	1371.14223899905	132.560435109824	2607.54642593888	1323.81403901379	149.106530629557	2035.40804859591	732.663001960391	130.004650252251	1273.93439330358	941.860793729334	147	1204.67300637635	909.908770426468	143.728132965319	1607.7467352988	634.723803829254	161.614235586519	750.912102679547	1081.77256627558	155	1694.09542116168	570.231775985102	149.061156926116	641.056627746176	1186.57170637366	144	2166.91095707092	1337.8544297389	137.747098797546	2202.36111364493	999.246883731397	143	2020.59629316152	1073.79997128526	148	1598.57386252821
402.5802973214	142.761508386973	716.015241887241	1348.4409704271	179.834415115697	1976.10257863459	1635.54246481584	143.005977475148	2764.419508301	1931.31028144265	160.474031852903	2991.22408672821	1370.43091533404	132.569669594002	2606.56273977716	1323.22704474826	149.155310402913	2034.49493068695	732.094511042723	130.001327222897	1272.8954141912	941.2158712716	147	1203.69230764513	909.664234569461	143.748052490494	1607.40578638522	634.623331832763	161.61917019311	750.623507654133	1081.54846849316	155	1693.93877711738	570.233294789436	149.082403674188	641.179384717936	1186.79313290629	144.001327222897	2167.38554949936	1337.68510818618	137.764058016311	2202.54349775573	999.406236037569	143	2021.2671977466	1074.44214236885	148	1600.08321385297
402.605193880966	142.836693597807	716.418199950917	1348.55965849344	179.916269102915	1977.12520162797	1635.45546773125	143.016400054859	2765.16124368598	1931.2533629264	160.467502962471	2991.83845721995	1369.91543279331	132.582217770275	2605.96445983878	1322.77408708851	149.207265107301	2033.83020285561	731.594692588142	130	1272.02183363844	940.734933373188	147	1203.0234481774	909.4570761387	143.767822189035	1606.81550577867	634.577554380506	161.630145588278	750.377509079595	1081.35965328381	155	1693.47124767252	570.225597821373	149.101082211157	641.217844142697	1186.95471282433	144.004650252251	2167.64848548781	1337.47921182475	137.785971669255	2202.65260859383	999.523513445464	143	2021.81444443591	1075.07397070815	148	1601.60795445077
402.649519908676	142.897336574172	716.894471706209	1348.94158824134	179.997368271882	1978.74843002106	1635.43397594241	143.036856247461	2766.04295928563	1931.24266950939	160.445616834377	2992.5621216324	1369.71716441501	132.596624718451	2606.06738774657	1322.54323398196	149.255703041147	2033.59194728059	731.263229024225	130	1271.53848832935	940.525693699668	147	1202.82895462478	909.369271732976	143.78018136172	1606.17880212437	634.647601251517	161.638375699373	750.257781662022	1081.29293715844	155	1692.88066934579	570.235868778368	149.113897378801	641.208268166683	1187.0904019113	144.011749802608	2167.81799157177	1337.24318350267	137.806676942727	2202.71074842504	999.597545649308	143	2022.26386507773	1075.68227664969	148	1603.12933362809
402.710143295851	142.940222048157	717.411174878489	1349.5413936641	180.078958672925	1980.83435692069	1635.45298274908	143.069152925397	2766.95647479317	1931.24087071135	160.414877948015	2993.24306545125	1369.87780890659	132.607309759448	2606.99764392114	1322.56582647659	149.29351402259	2033.84027655136	731.154565896388	130	1271.55837617736	940.623762604469	147	1203.15018139182	909.44431302568	143.781420671239	1605.66572200633	634.854793464649	161.636532848037	750.298416326421	1081.38946230158	155	1692.32686577656	570.277472494487	149.118459717673	641.173276836017	1187.22224650149	144.023779221956	2167.9999979451	1336.97347298396	137.818422145676	2202.71049763951	999.627385386974	143	2022.63520569717	1076.24152175347	148	1604.59383367988
402.775981542206	142.965593050646	717.90141038396	1350.25133818427	180.159177606641	1983.08155078358	1635.45571914656	143.113630179914	2767.68624366876	1931.18308778307	160.384165184524	2993.62706839813	1370.35380388409	132.60732005927	2608.66678185145	1322.81026502707	149.314760770662	2034.50876294887	731.266575192476	130	1272.06286533792	940.988137664185	147	1203.90351273862	909.677184723221	143.76888755407	1605.37602865754	635.176481892674	161.619349478618	750.478991753612	1081.63610593857	155	1691.90478372924	570.347680163147	149.113897378801	641.119186322059	1187.35601783037	144.04072345119	2168.25919583391	1336.66042222747	137.8124004261	2202.61134793226	999.612423651547	143	2022.92874050063	1076.72024613126	148	1605.91438401452
402.827375182803	142.975173171887	718.282772786255	1350.92497586151	180.232893008853	1985.10135919001	1635.36547880378	143.167339822261	2767.97275214868	1930.99209541118	160.359602717581	2993.43192258195	1371.04239466794	132.589925397299	2610.80764848005	1323.20639353039	149.316061801114	2035.43327472532	731.554901356333	130	1272.91790626689	941.524733626049	147	1204.90785619916	910.02554955375	143.742951805506	1605.33887595005	635.559846828962	161.584746088301	750.739262290648	1081.97726741274	155	1691.64474890811	570.434461901323	149.101082211157	641.045316671316	1187.48470393288	144.061156926116	2168.61601553341	1336.29558987005	137.784220344009	2202.35894176767	999.553232415412	143	2023.13252257917	1077.0884926866	148	1606.99199906404
402.845395076895	142.971570525793	718.475297599714	1351.42200884128	180.292733011895	1986.50231096233	1635.11935409611	143.224209336535	2767.56923185194	1930.61429116709	160.345032542406	2992.41161703514	1371.81090360876	132.552117890625	2613.06910601587	1323.66550118449	149.297383264146	2036.41524145225	731.948689913366	130	1273.92885895644	942.115917993946	147	1205.94357496916	910.422967238887	143.708656262201	1605.53270731466	635.93910938334	161.53545063688	751.00659017498	1082.33459929666	155	1691.53214288517	570.52580077529	149.082403674188	640.957699978106	1187.59351147058	144.082403674188	2169.05443265212	1335.88099626665	137.731751689869	2201.91321450451	999.454502839754	143	2023.23316355786	1077.32997939228	148	1607.74387629272
402.815893334129	142.957949325913	718.424640544914	1351.64245677346	180.332112084733	1986.98721982202	1634.68326364159	143.276136516073	2766.31198152851	1930.03522569336	160.341422237741	2990.42841013263	1372.53389118625	132.494727185691	2615.0982243685	1324.10778804078	149.262020317978	2037.26731668611	732.371754245881	130	1274.8908685723	942.653171787746	147	1206.80570242177	910.800301764289	143.671390230129	1605.90903903352	636.25448856107	161.475350813804	751.224421747738	1082.62820639975	155	1691.53255690725	570.614273312773	149.061156926116	640.87763828531	1187.671227145	144.101082211157	2169.55168036882	1335.43565291263	137.660312069993	2201.28639568702	999.328837569592	143	2023.23847272045	1077.45097268836	148	1608.14125272592
402.734284815069	142.937515850987	718.123334095847	1351.55159874708	180.346254475274	1986.45391292688	1634.06546762714	143.314760770662	2764.2028988964	1929.28923847524	160.346368047246	2987.53485997552	1373.12146007547	132.425697309202	2616.63829280462	1324.47789704231	149.217104979004	2037.86728363154	732.763882930021	130	1275.64978621095	943.063185394473	147	1207.35904604379	911.109370879959	143.636353562529	1606.41848809074	636.474487126052	161.411275301921	751.371238519024	1082.80802568792	155	1691.61441318005	570.705278811375	149.04072345119	640.842975667247	1187.71390438142	144.113897378801	2170.0883838198	1334.99025189341	137.579773964817	2200.54324706623	999.19328209529	143	2023.18011996833	1077.47886697697	148	1608.22061193128
402.610358872226	142.911618850664	717.619190930677	1351.19805167101	180.33343930763	1985.02944652426	1633.32628101678	143.33343930763	2761.43284061154	1928.46563938464	160.356347942842	2983.98523646019	1373.53853286689	132.354519188048	2617.59550310057	1324.75960167368	149.17156235945	2038.18932510319	733.095859077146	130	1276.14439704436	943.325476652164	147	1207.57365058573	911.33693561203	143.609437186321	1607.03932608128	636.604647254734	161.351717349355	751.477961892995	1082.86597813773	155	1691.77686251646	570.818772220162	149.023779221956	640.907075203898	1187.73700615998	144.118459717673	2170.67595609963	1334.59353285537	137.502455986085	2199.81065846545	999.074979734125	143	2023.12448982385	1077.46651443724	148	1608.09101921962
402.464671335029	142.882517733985	717.011118422083	1350.69568373929	180.298710487042	1983.06170056847	1632.55504033207	143.328876968758	2758.36646113119	1927.67512618194	160.369190635336	2980.20702531839	1373.80775674348	132.29404702768	2618.05396210977	1324.97413418686	149.135659976508	2038.30558301402	733.372878439122	130	1276.41966359692	943.473610879039	147	1207.53056084498	911.51188416266	143.593566050267	1607.80028406118	636.692650781665	161.303897268778	751.626146037416	1082.84427526071	155	1692.07083148364	570.988555028045	149.011749802608	641.134221938988	1187.77635931214	144.113897378801	2171.36160949732	1334.30237007289	137.442351355835	2199.25227335783	999.010052387028	143	2023.1635229714	1077.48232865066	148	1607.91856172626
402.325483488267	142.850573596635	716.434789717444	1350.21057593649	180.250620286609	1981.06808414669	1631.86701524053	143.301945603018	2755.49393044928	1927.04425398928	160.38417555392	2976.74055393714	1374.00058545306	132.252892802516	2618.26147780953	1325.17186032969	149.119063480687	2038.36662035765	733.633613682374	130	1276.62107394769	943.585634112994	147	1207.4048152735	911.697445264118	143.590544277941	1608.7722592595	636.813988688775	161.273684310677	751.929504649781	1082.82353257844	155	1692.58660308936	571.25212710182	149.004650252251	641.583050367844	1187.88909056243	144.101082211157	2172.22675008575	1334.17797097517	137.407775490368	2199.0466489422	999.040378063244	143	2023.40423191015	1077.6021594513	148	1607.89976805534
402.223869451016	142.815710386284	716.036160492362	1349.92247480122	180.20201132925	1979.63433802564	1631.37172702562	143.257457979105	2753.33524685638	1926.6805477317	160.402037689256	2974.1349980527	1374.22169292689	132.237112638753	2618.56809251515	1325.42077866312	149.127603654342	2038.56384847427	733.940818073619	130	1276.95874802406	943.767427555727	147	1207.42590892978	911.973810756181	143.600736358548	1610.06531630173	637.056838873232	161.266498884769	752.514786655265	1082.90143499472	155.001327222897	1693.45142284156	571.642265023891	149.002654445794	642.2993812732	1188.13383170092	144.082403674188	2173.36075451985	1334.26333261291	137.404452461014	2199.3355326354	999.200245104866	143	2023.93727978642	1077.88977364593	148	1608.21865495048
402.184907694468	142.779571991643	715.940642026958	1349.99034309863	180.167166098974	1979.29185828	1631.15341824979	143.202962588463	2752.329119579	1926.65132987708	160.42489900511	2972.83354748596	1374.58864279828	132.246317501732	2619.35966326064	1325.79476280591	149.16384306962	2039.09209503113	734.366164669819	130	1277.66924120101	944.131199575112	147.001327222897	1207.83180879911	912.417337574254	143.620655883724	1611.80728568651	637.498776969686	161.282115891106	753.496133935634	1083.16707947674	155.003323029354	1694.80694375253	572.174508069646	149.004650252251	643.30616985557	1188.55787194527	144.061156926116	2174.84305069615	1334.57285686386	137.430601553227	2200.19856478295	999.508441866875	143	2024.82585247514	1078.38281764036	148	1609.01738504251
402.224916085712	142.743607385931	716.231932680975	1350.5196300674	180.158482426656	1980.42725463649	1631.24989775239	143.146906347334	2752.75522151962	1926.96972110919	160.454126783408	2973.10162402136	1375.20859809315	132.275714175666	2620.98239927577	1326.35826900655	149.224463328309	2040.11822847622	734.975573581026	130	1278.96452069857	944.771407276984	147.004650252251	1208.8235285754	913.080679987693	143.647580008554	1614.11162121273	638.188806938917	161.319768404832	754.950685897489	1083.68088932732	155.007099550357	1696.77793927498	572.843915634396	149.011749802608	644.598998696556	1189.18745393858	144.04072345119	2176.71543906409	1335.08865785442	137.480003987026	2201.6284553329	999.962514094156	143	2026.08431785444	1079.08751571647	148	1610.36902797699
402.344680308606	142.709003995614	716.926751824019	1351.53461690225	180.183566153833	1983.19369412408	1631.63572356167	143.09668595068	2754.65254350013	1927.58070067853	160.489897647932	2974.95342042333	1376.15705405218	132.317643015785	2623.67654097845	1327.1531722004	149.30176631751	2041.74876546799	735.813597980303	130	1280.99241940886	945.74578105412	147.011749802608	1210.52679985985	913.983222063307	143.676584656754	1617.06449999444	639.138865082005	161.374551140358	756.908809701736	1084.46400909886	155.012029419348	1699.45880287406	573.624974116542	149.023779221956	646.151471644434	1190.01858390156	144.023779221956	2178.98288651151	1335.75989025447	137.543700765878	2203.5446535712	1000.53794684425	143.001327222897	2027.68889015821	1079.97970227433	148	1612.27985837217
402.532588646873	142.677162557589	717.977084309199	1352.98020593211	180.242190606065	1987.49934359641	1632.23058360603	143.057123506049	2757.82141424842	1928.3817115515	160.531059183578	2978.16961176786	1377.46431906656	132.363213160188	2627.54470251239	1328.18874120361	149.384973858012	2044.01929826686	736.89384630686	130	1283.80962623172	947.065249966183	147.023779221956	1212.9771434875	915.102187948481	143.704117682038	1620.68503668896	640.317543502122	161.440770141163	759.343046220205	1085.49130200854	155.016944229234	1702.87654536238	574.472098404432	149.04072345119	647.913356373739	1191.01907288951	144.011749802608	2181.60597573754	1336.51660798917	137.612232169382	2205.80637414171	1001.19529157649	143.004650252251	2029.58245867008	1081.0147946526	148	1614.69589627489
402.764390632096	142.649362471362	719.2812597152	1354.73744653469	180.32819998526	1993.03596188136	1632.91967649694	143.029756697104	2761.86579786738	1929.2459419231	160.575123712566	2982.35070874985	1379.10556381555	132.405153203221	2632.53401455193	1329.43820185737	149.462543908156	2046.89624460202	738.195667279496	130.001327222897	1287.37388350777	948.68963167178	147.042050674087	1216.11886591964	916.383221812199	143.728656459845	1624.92362896229	641.662821309611	161.512878703738	762.176110787101	1086.70537541548	155.020433474926	1706.98692392189	575.333180508682	149.061156926116	649.820557537907	1192.13223763786	144.004650252251	2184.50698041862	1337.27839442197	137.677777489888	2208.24042240947	1001.88644729299	143.013077025505	2031.6856743155	1082.1360360727	148	1617.51505544889
