Light	Light	Light	Light	Light	Light	Light	Light	Light	Light	Light	Light	Light	Light	Light	Light	Light	Light	Light	Light	Light	Light	Light	Light	Light	Light	Light	Light	Light	Light	Light	Light	Light	Light	Light	Light	Light	Light	Light	Light	Light	Light	Light	Light	Light	Light	Light	Light
Optode1-730nm	Optode1-Ambient	Optode1-850nm	Optode2-730nm	Optode2-Ambient	Optode2-850nm	Optode3-730nm	Optode3-Ambient	Optode3-850nm	Optode4-730nm	Optode4-Ambient	Optode4-850nm	Optode5-730nm	Optode5-Ambient	Optode5-850nm	Optode6-730nm	Optode6-Ambient	Optode6-850nm	Optode7-730nm	Optode7-Ambient	Optode7-850nm	Optode8-730nm	Optode8-Ambient	Optode8-850nm	Optode9-730nm	Optode9-Ambient	Optode9-850nm	Optode10-730nm	Optode10-Ambient	Optode10-850nm	Optode11-730nm	Optode11-Ambient	Optode11-850nm	Optode12-730nm	Optode12-Ambient	Optode12-850nm	Optode13-730nm	Optode13-Ambient	Optode13-850nm	Optode14-730nm	Optode14-Ambient	Optode14-850nm	Optode15-730nm	Optode15-Ambient	Optode15-850nm	Optode16-730nm	Optode16-Ambient	Optode16-850nm
355.492913878838	139.515006862132	784.87416494687	1654.34888671759	175.765369983638	2498.25493595743	1044.16256960606	138	2177.50520179628	1791.26359997973	147.004650252251	2595.68530777206	1628.0133885648	127	3548.82675230837	1502.7004448694	136	2189.36547793871	792.960170586062	125	1634.53526942718	1351.72581654717	144.881540282327	1955.51967136131	1221.12936071338	138.490164846818	2395.3661825599	1832.98062062361	159.192781582672	2659.14897042419	1407.92822960524	137.297383264146	2620.28408413505	1410.74514792051	138	2011.58099594914	890.585636630032	126	2217.26522001415	1520.77791711083	126.509822735328	2815.08409006195	309.185243147969	126	865.423877825809	2488.54382875541	134.089329501259	4102.24301573157
355.429738428589	139.51141920557	784.152424548124	1654.09942344962	175.751837718222	2496.72341033641	1043.76533636345	138	2175.2391783377	1791.15347800322	147.001327222897	2593.64013462981	1627.52045348645	127	3546.79271806119	1502.8475714484	136	2188.58787820495	792.830613257006	125	1633.31842260917	1351.64057140469	144.886102621199	1953.97424707804	1221.11533002079	138.512528932499	2393.04225227456	1833.87321774075	159.206840867009	2658.44133845998	1408.04135467167	137.29351402259	2618.10862031291	1411.55105354226	138	2011.12485571431	891.119362182883	126	2216.48579453506	1521.56430606723	126.562923477221	2815.14173496343	309.432981189455	126	865.938745934972	2490.12631741518	134.13163707441	4102.65435679983
355.438784941316	139.509036987033	783.68731052491	1654.32363862122	175.761334663686	2496.44350060574	1043.77380953247	138	2174.14989790472	1791.64743168658	147	2593.22871421831	1627.47017812135	127	3547.25320032671	1503.13268673563	136	2189.0265658432	792.866607866146	125	1633.22020040021	1351.58030490687	144.898917788843	1953.39924323036	1221.1934059843	138.522396329051	2391.7704977655	1835.09100904431	159.217634035751	2659.06134813186	1408.38024154805	137.273080547663	2616.97232444205	1412.79220695092	138	2011.94164604208	891.79496861825	126	2217.17340735425	1522.66862152464	126.607431731358	2817.26805415892	309.710095157186	126	866.849102810773	2491.99285893686	134.191588749539	4103.6765741267
355.507308616675	139.50858342581	783.475981293755	1654.88946595817	175.78554946679	2497.28982869573	1044.12780432115	138	2174.1850141535	1792.58064959678	147	2594.26044212696	1627.74115791086	127	3549.85475548058	1503.45123271322	136	2190.48991598007	793.027792486618	125	1634.15006451987	1351.47985338003	144.917596325812	1953.67745980604	1221.35689830283	138.520343746387	2391.57342334914	1836.4995220481	159.219629842208	2660.79513485285	1408.9010492021	137.238758811913	2616.84454289817	1414.344414344	137.998672777103	2013.84236336434	892.523926147534	126	2219.02992805193	1523.91478111505	126.638287785995	2820.9609754315	309.992641650694	126	868.014333971515	2493.88125225899	134.262370089217	4105.16808888129
355.621118082098	139.509009462183	783.502471567947	1655.64528184415	175.817037609181	2499.07856911378	1044.74442101951	138	2175.24157355783	1793.78487077714	147	2596.52794413544	1628.22095829146	127	3554.20179850103	1503.73595224012	136	2192.82724875933	793.275346263851	125	1635.97167892846	1351.30113129591	144.938843073884	1954.687160522	1221.58496521273	138.509729259729	2392.42316237445	1837.9857482876	159.213940417367	2663.48176706712	1409.55796159355	137.195235687953	2617.70953224168	1416.09712337439	137.995349747749	2016.66856620702	893.243013893028	126.001327222897	2221.73647595187	1525.17204802609	126.655749731121	2825.70328990121	310.260532578906	126	869.29377665274	2495.60334584823	134.338889763857	4106.92483237723
355.767312138834	139.509695267231	783.741736088369	1656.45750644086	175.850573596635	2501.59097502607	1045.53326258163	138	2177.17852644503	1795.11918110649	147	2599.82879868006	1628.82867181521	127	3559.87665513549	1503.96617604732	136	2195.92432401852	793.576205512471	125	1638.50487369475	1351.04200743706	144.95927654881	1956.30827532913	1221.84627280611	138.493152560613	2394.22423501222	1839.4722209022	159.20481100202	2666.99987419118	1410.30833127811	137.148210852555	2619.53800953306	1417.96229931079	137.988250197392	2020.2819246907	893.917263914836	126.004650252251	2224.997603534	1526.36480912711	126.663657817023	2831.03179090969	310.500766712037	126	870.56628541261	2497.07442288079	134.415669258532	4108.71890650477
355.936650826464	139.510183024537	784.158965276054	1657.24428414406	175.882517733985	2504.5839097231	1046.41845513801	138	2179.82432802555	1796.49726503152	147	2603.96201211985	1629.52229817923	127	3566.43879478331	1504.16532740079	136	2199.66649774522	793.906002221573	125	1641.52223684695	1350.72913057463	144.976220778044	1958.40906773442	1222.10493234775	138.471742655115	2396.80798000811	1840.9162058148	159.198929168395	2671.23720436149	1411.11579052941	137.103207600203	2622.25697485765	1419.87188065657	137.976220778044	2024.54100687247	894.537843810095	126.011749802608	2228.5670613967	1527.46513488261	126.667403754264	2836.57456755532	310.708379552751	126	871.747992755598	2498.3076105699	134.488314129395	4110.35477261908
356.1239101739	139.511144396004	784.713629987127	1657.9778429871	175.912946073561	2507.81472741048	1047.34261513691	138	2182.98794382166	1797.88340353146	147	2608.72219039479	1630.2873198815	127	3573.40309270716	1504.37424486825	136	2203.88882035574	794.242123074675	125	1644.75434953188	1350.40362407914	144.988250197392	1960.8245953636	1222.32004670917	138.446397845072	2399.92209010974	1842.2882361422	159.204196069722	2676.02304486257	1411.93811534993	137.065829896043	2625.70224186789	1421.76047527946	137.95927654881	2029.25220402784	895.109860277329	126.023779221956	2232.23822364994	1528.47224866477	126.672860038751	2842.03034211768	310.884259548667	126	872.787532310149	2499.38560277863	134.554579606586	4111.68027013997
356.326872762363	139.515442177241	785.358495028479	1658.6779849242	175.943493326135	2511.04079511068	1048.26988423136	138	2186.45606153282	1799.27792689337	147	2613.87453115501	1631.12996077504	127.001327222897	3580.24726260958	1504.63776773654	136	2208.3451606862	794.567824842782	125	1647.90372896042	1350.10767468281	144.995349747749	1963.34557905695	1222.45985800433	138.41742419649	2403.2521894909	1843.56555579822	159.224463328309	2681.09582352405	1412.73090771996	137.040179276815	2629.60612952417	1423.55751262816	137.938843073884	2034.14318085772	895.638799761875	126.04072345119	2235.82821874192	1529.38835079061	126.682986372194	2847.14327158682	311.031474698065	126	873.655374757552	2500.41256006688	134.6125062239	4112.61010768403
356.54265051847	139.524737099574	786.039267221255	1659.38845463871	175.975676603669	2514.02594853048	1049.18286349094	138	2189.9980794551	1800.6964680586	147	2619.14600008882	1632.0484603492	127.004650252251	3586.42012822588	1504.97493312595	136	2212.7009857971	794.863333865349	125	1650.66918604604	1349.86640898656	144.998672777103	1965.71658148532	1222.4942732103	138.384935109771	2406.45263310513	1844.70343806272	159.260086094511	2686.09140748598	1413.43625750482	137.028149857467	2633.60635615654	1425.1705650461	137.917596325812	2038.86099244724	896.12047534305	126.061156926116	2239.16019274432	1530.20155452384	126.697162755233	2851.67833964728	311.15194737765	125.998672777103	874.330638534473	2501.46492520717	134.660306507772	4113.12635378701
356.767293132287	139.540001634897	786.701644604421	1660.14536628494	176.011749802608	2516.56128976136	1050.0700569642	138	2193.38649847182	1802.14380936283	147	2624.2485725482	1633.03288155277	127.011749802608	3591.41803738063	1505.38183445584	136	2216.58502637667	795.115310677644	125	1652.79341593067	1349.69557003687	145	1967.68153614531	1222.40670875925	138.352246406102	2409.20822545873	1845.642654938	159.307670868811	2690.59652343882	1413.99041951396	137.029756697104	2637.30714118905	1426.49786993391	137.898917788843	2043.01576379456	896.53427610806	126.082403674188	2242.04213312556	1530.87565352192	126.713213038852	2855.38938619321	311.242607009095	125.995349747749	874.782852847703	2502.55588008377	134.696812983994	4113.24376104748
356.994022524852	139.559680291574	787.290074391176	1660.96178523509	176.052752870538	2518.45667979939	1050.9231815305	138	2196.40228423627	1803.61011843383	147	2628.89324942579	1634.05702358508	127.023779221956	3594.84433855977	1505.83471803105	136	2219.65437361573	795.31595298669	125	1654.09635360035	1349.60579661765	145	1969.03109223957	1222.19571161003	138.320471046923	2411.28694990382	1846.31431908739	159.359069109067	2694.2173261241	1414.33358516744	137.042050674087	2640.34681949091	1427.43572125647	137.8861026212	2046.2413258756	896.841195823597	126.102409434054	2244.29583598016	1531.34988936968	126.727207331072	2858.06266921269	311.293328937647	125.988250197392	874.974822373466	2503.61382859224	134.721229855924	4113.03126181838
357.212325144163	139.577902833583	787.754299985788	1661.81074684928	176.097230125055	2519.56607272784	1051.72778456952	138	2198.86130447618	1805.06139001056	147	2632.84064300768	1635.08071423516	127.04072345119	3596.4920055865	1506.297154985	136	2221.6814110466	795.465392680421	125	1654.51011131176	1349.60919623797	145	1969.65817368688	1221.87566996171	138.293334737082	2412.5728452228	1846.66538012776	159.406433949733	2696.66374904365	1414.4241643538	137.061156926116	2642.46144555113	1427.90852617277	137.881540282327	2048.26660107841	897.000546886586	126.119874853948	2245.7785330926	1531.56652336546	126.733856448692	2859.54999308244	311.290779308308	125.976220778044	874.865105968201	2504.51543502863	134.732529225795	4112.58536479935
357.409865506671	139.590054224841	788.056670742036	1662.63125700097	176.142233377408	2519.80336126962	1052.46412918203	138	2200.63744413358	1806.453296815	147	2635.94012343112	1636.05607054328	127.061156926116	3596.39213724915	1506.73799394907	136	2222.61526373521	795.569805927519	125	1654.09064706251	1349.72424667421	145	1969.59420350076	1221.48122335806	138.273095003344	2413.09064797306	1846.68260048192	159.440949426672	2697.83325031443	1414.25421149065	137.082403674188	2643.54844725355	1427.88872976246	137.8861026212	2048.98539169	896.978342231185	126.134859772532	2246.42005255592	1531.48321743487	126.731207515494	2859.82134022567	311.221719858511	125.95927654881	874.42100792124	2505.10497614609	134.729880292597	4112.02149371923
357.57317000898	139.589160279227	788.172748123779	1663.34071172301	176.183485885345	2519.14393461875	1053.10587269084	138	2201.66749357084	1807.7380243366	147	2638.14729891865	1636.93430469629	127.082403674188	3594.80964609231	1507.13341042159	136	2222.60103477842	795.64046740978	125	1653.00369582651	1349.97129109509	145	1969.01157639983	1221.05632079069	138.261065583996	2412.98383278613	1846.39820323643	159.457893655905	2697.83009074724	1413.84660743397	137.101082211157	2643.66707606312	1427.40427491933	137.898917788843	2048.47153704098	896.763737829917	126.149426403365	2246.25994153924	1531.10287374739	126.71839234785	2859.00776706353	311.078159258206	125.938843073884	873.637900375479	2505.25432502863	134.7137420956	4111.46428087243
357.692523672267	139.57404389185	788.097704043515	1663.85823233402	176.214979589957	2517.64974863475	1053.6267851932	138	2201.97016114499	1808.87745281109	147	2639.54114889605	1637.67886492841	127.101082211157	3592.21743570264	1507.47805218786	135.998672777103	2221.95731394798	795.687887737755	125	1651.49611036332	1350.36660874932	145	1968.18987131338	1220.65229116839	138.258588761039	2412.47630623821	1845.90180093045	159.457168296138	2696.95069735975	1413.26284958448	137.1138973788	2643.02302185319	1426.54666070444	137.917596325812	2046.97334700279	896.38010296134	126.165584884303	2245.44691049968	1530.48374878394	126.696473182311	2857.39899257213	310.863179668249	125.917596325812	872.547269567078	2504.90412167651	134.684723379702	4111.02559530323
357.762633369472	139.544919086034	787.85009781477	1664.13204328849	176.232357096474	2515.47585806959	1054.00953992052	138	2201.64648285305	1809.85553600565	147	2640.3064826218	1638.27539281187	127.113897378801	3589.19167820316	1507.78173004327	135.995349747749	2221.09274572983	795.72306674913	125	1649.84120946573	1350.91118240195	145	1967.44532204777	1220.31154017996	138.265291595955	2411.81431414899	1845.31406247214	159.442800006152	2695.61133616647	1412.5853745391	137.11978694057	2641.90775307864	1425.44839417452	137.938843073884	2044.85330782194	895.883235631646	126.184284051494	2244.20811532734	1529.73568661172	126.669816626137	2855.3783681931	310.590897286735	125.898917788843	871.213226452174	2504.07921255489	134.646037404181	4110.77563829587
357.786132974689	139.505172483078	787.465277722838	1664.15328474124	176.231029873577	2512.84703985097	1054.25223031203	138	2200.85710612905	1810.68096612384	147	2640.68598823701	1638.74062503406	127.118459717673	3586.31601671503	1508.07203403948	135.988250197392	2220.4150985512	795.754833514517	125	1648.29417237636	1351.59180789387	145	1967.06027457279	1220.06107760956	138.280265311625	2411.2043524723	1844.76294862333	159.42382591193	2694.24134478972	1411.90394090429	137.118547631051	2640.6205464905	1424.26074019813	137.95927654881	2042.50846254406	895.351718863962	126.204717526421	2242.80773325804	1529.00083920936	126.641104476277	2853.36044754933	310.285366262651	125.8861026212	869.726873977137	2502.8900790465	134.600381025088	4110.74797281055
357.772882225897	139.459876393193	786.994765557518	1663.95578779347	176.210329337707	2510.04378670423	1054.36918894558	138	2199.80729920199	1811.37729474945	147	2640.93813375404	1639.11648680714	127.113897378801	3584.08586953279	1508.37745234765	135.976220778044	2220.24496963159	795.790736027329	125	1647.05455560163	1352.37710468919	145	1967.23004559991	1219.90996962488	138.302981868319	2410.76883411656	1844.35968312137	159.410839720773	2693.18627282198	1411.30225376747	137.114159236662	2639.40533646021	1423.12898639114	137.976220778044	2040.2878566084	894.873066954607	126.224209336535	2241.48075432322	1528.42376386826	126.614759081044	2851.68738381344	309.977033399874	125.881540282327	868.18584152299	2501.50335056008	134.552274932031	4110.9192338703
357.737629910783	139.414470863177	786.491034644304	1663.60462583037	176.171736082737	2507.32392262287	1054.39097761827	138	2198.68972411508	1811.97308226127	147	2641.25741617225	1639.46026639297	127.101082211157	3582.81636003729	1508.71812471572	135.95927654881	2220.74417680992	795.83455748501	125	1646.23845779903	1353.22073606635	145	1968.0219763301	1219.84262333949	138.332500466271	2410.53928241861	1844.16194774271	159.412075971379	2692.64486435595	1410.83649473979	137.110833148395	2638.41198968019	1422.15857884344	137.988250197392	2038.43721815494	894.524348680704	126.238758811913	2240.3970341028	1528.12122127082	126.591528574599	2850.58248257839	309.696050190587	125.8861026212	866.685148786533	2500.10128975042	134.50447464816	4111.22429671557
357.696639260707	139.372956856517	786.005670893113	1663.17781600003	176.119781378349	2504.90571199376	1054.35616828218	138	2197.67048241192	1812.49161053614	147	2641.76207486889	1639.82345047338	127.082403674188	3582.61184269273	1509.08751935964	135.938843073884	2221.89581553623	795.886146337969	125	1645.87893571441	1354.06123246317	145	1969.37608932264	1219.83138632012	138.366643054456	2410.45648668892	1844.17240771092	159.433050851334	2692.63809176099	1410.53428027884	137.113630179914	2637.67865826795	1421.40710626025	137.995349747749	2037.06338874736	894.358142074113	126.244106899082	2239.64010665936	1528.16310702285	126.572306884342	2850.12844257074	309.467807433985	125.898917788843	865.302091799187	2498.84351743851	134.459474870577	4111.57267960765
357.66656069237	139.339687930007	785.579711754923	1662.75360488268	176.061156926116	2502.9326226771	1054.30706311319	138	2196.86049165437	1812.94375153287	147	2642.47416301802	1640.24643515999	127.061156926116	3583.38415681807	1509.45895910926	135.917596325812	2223.53060370011	795.943659542473	125	1645.93786302516	1354.83504571586	145	1971.1243142049	1219.8362504538	138.404175751564	2410.40651769648	1844.33690850075	159.47332867696	2693.03490171537	1410.39441283357	137.125659599262	2637.15979702092	1420.88365250455	137.998672777103	2036.15012189475	894.393399951448	126.237007348724	2239.21754157251	1528.55902779338	126.555448530659	2850.29564930393	309.307302604446	125.917596325812	864.095310515775	2497.82980592597	134.417771929902	4111.87445126577
357.659722999874	139.316844711693	785.247005803017	1662.4020646417	176.00334574703	2501.48595163667	1054.28425400752	138	2196.32580591154	1813.33520532848	147	2643.3617873233	1640.73901161946	127.042050674087	3584.92172185011	1509.78234856151	135.898917788843	2225.40053609137	795.998450426142	125	1646.33438487731	1355.47024173295	145	1973.0402274146	1219.80991081013	138.443745437105	2410.26212688889	1844.56593703274	159.529151290499	2693.62816068497	1410.39609385096	137.146906347334	2636.78229736954	1420.56537573575	137.998672777103	2035.61859677523	894.618708849493	126.216306812854	2239.09103895586	1529.27209842575	126.540123606807	2850.99944721486	309.217716204123	125.938843073884	863.103401524839	2497.0913411285	134.380940437944	4112.0658517772
357.684287970126	139.304830281877	785.031887840743	1662.17884872787	175.953125350376	2500.59745413353	1054.32208002366	138	2196.0949647931	1813.67457229653	147	2644.37140420354	1641.30231809822	127.028429474207	3586.97576082499	1510.01790716644	135.8861026212	2227.26318334608	796.046719260768	125	1646.97822376999	1355.91582106379	145	1974.89736383891	1219.70920736056	138.483925735006	2409.91704540186	1844.77083976712	159.592740359268	2694.21695945639	1410.5196954929	137.173988939881	2636.49326167221	1420.42516666518	137.995349747749	2035.38781303059	894.998155127293	126.184813108242	2239.21581174978	1530.23603166657	126.526235345983	2852.16187793408	309.192198074774	125.95927654881	862.347460405426	2496.59407166616	134.34985381817	4112.12806563638
357.744123235566	139.301771879731	784.948864388993	1662.12545343698	175.915317843702	2500.26534490537	1054.44913488402	138	2196.17767732071	1813.98498945728	147	2645.4716006478	1641.92705199303	127.023499605216	3589.35209455652	1510.14652522483	135.881540282327	2228.96238164946	796.087787034829	125	1647.80118329729	1356.1440713999	145	1976.5335240296	1219.5044523797	138.521938030228	2409.33612496971	1844.89820469933	159.657344014961	2694.7034332345	1410.75731636169	137.202278528136	2636.31712908878	1420.45195800469	137.988250197392	2035.44338925374	895.486221043548	126.149538075452	2239.58267532495	1531.38056954522	126.515794648255	2853.77262518343	309.215293502442	125.976220778044	861.840921399234	2496.26453047061	134.326331287762	4112.09947271064
357.83758713944	139.304158905443	785.00381294495	1662.25617421833	175.89075287345	2500.45284855543	1054.68114614697	138	2196.57231053942	1814.29757273233	147	2646.66809054575	1642.60608203897	127.028429474207	3591.95528301173	1510.17894564242	135.8861026212	2230.47042101253	796.128019001175	125	1648.77891386165	1356.16287443156	145	1977.89564999281	1219.18822769251	138.554579606586	2408.57036151644	1844.94779265168	159.716912219458	2695.12866217743	1411.11354392118	137.225519403977	2636.35377029763	1420.6532970977	137.976220778044	2035.845335801	896.039270920801	126.118280432165	2240.23359400246	1532.64922580785	126.5124668813	2855.90178663753	309.269674787261	125.988250197392	861.593628494302	2496.01432988845	134.311253718199	4112.06302751115
357.959102825524	139.307126960474	785.193314229063	1662.56824682929	175.878217252973	2501.08135510722	1055.02589719269	138	2197.26911894347	1814.656433293	147	2648.00000546524	1643.33555171517	127.042050674087	3594.78258665491	1510.15115500996	135.898917788843	2231.8721659005	796.178450747126	125	1649.92606108185	1356.00826355589	145	1979.04561350016	1218.78077118689	138.577555100171	2407.75624992284	1844.97261718922	159.765953491537	2695.66376535622	1411.59847560377	137.239544560209	2636.74825720752	1421.04107048303	137.95927654881	2036.69316544187	896.622748224693	126.10003169771	2241.25502461079	1534.00375637533	126.518087981953	2858.67910588889	309.338889763857	125.995349747749	861.614498169287	2495.75951937934	134.302854400222	4112.12497092902
358.100130951944	139.30794023362	785.507440809917	1663.04174004093	175.874352818591	2502.04013674041	1055.48074807718	138.001327222897	2198.25216509453	1815.10595931124	147	2649.52764399325	1644.11101726014	127.062484149013	3597.86608394223	1510.1071461675	135.917596325812	2233.31031262079	796.249542099739	125	1651.27618677967	1355.73626465519	145	1980.12565991069	1218.32272128006	138.588727001944	2407.0902969406	1845.05326058837	159.803872670298	2696.54532988377	1412.20744746896	137.243321150786	2637.63245465203	1421.60684503016	137.938843073884	2038.05869871434	897.213017200447	126.10003169771	2242.74060106893	1535.41760887621	126.535613240508	2862.22118518519	309.409691783384	125.998672777103	861.905035853096	2495.43342994662	134.298850372994	4112.37556368069
358.250620286609	139.30456599028	785.934118004511	1663.64655005442	175.875138566887	2503.21012909367	1056.03255057705	138.004650252251	2199.50569723726	1815.67862259892	147	2651.31907723307	1644.92929067489	127.087053926439	3601.24526596478	1510.09260393271	135.938843073884	2234.9341878461	796.351001755559	125	1652.86568337939	1355.41307210558	145	1981.3229308807	1217.86894084723	138.586184983285	2406.78325569953	1845.27027986844	159.829611202904	2697.98472678014	1412.91367411325	137.237024504179	2639.06735037129	1422.30502497999	137.917596325812	2039.9176185127	897.791132367616	126.118280432165	2244.73860086271	1536.85592290226	126.564418457202	2866.53946612623	309.471914074536	126	862.451905086703	2494.9802394751	134.296432004933	4112.86017261355
358.400590864349	139.29658015288	786.459500687914	1664.3546005211	175.876872874622	2504.4741403743	1056.66640795845	138.011749802608	2201.00932483469	1816.40033869969	147	2653.43817892313	1645.77082345142	127.112832013765	3604.86966847589	1510.13682604352	135.95927654881	2236.8271632906	796.477518779295	125	1654.68332492901	1355.09790464697	145	1982.78963090774	1217.461574742	138.57204502648	2406.98511917682	1845.67225316639	159.843268898591	2700.08439266985	1413.65738035707	137.223396063389	2640.99148495618	1423.02272390331	137.898917788843	2042.08063087083	898.330645828106	126.149538075452	2247.18574739149	1538.24219105177	126.601519673109	2871.44070428081	309.516396136228	126	863.21093182455	2494.3315543704	134.291326582344	4113.54956051086
358.540175358184	139.284565792636	787.067333348194	1665.13158171825	175.877686147768	2505.74322686943	1057.36063898288	138.023779221956	2202.74475808769	1817.29384781154	147	2655.97605862604	1646.58842510021	127.137676600757	3608.55521541902	1510.25391037908	135.976220778044	2238.97543772654	796.603172705412	125	1656.64101683088	1354.84036611369	145	1984.60267336308	1217.11423734725	138.550953271356	2407.72873226881	1846.2696354214	159.846239387358	2702.79432777577	1414.34728623804	137.205530799567	2643.20837925814	1423.57407017583	137.8861026212	2044.18839932741	898.789408291572	126.184813108242	2249.87166719856	1539.4386781813	126.6430486693	2876.47362882535	309.536048600459	126	864.10128809665	2493.39716644612	134.281595234296	4114.34477898158
358.659845064445	139.270107289549	787.732181022369	1665.93235688348	175.876872874622	2506.94007988698	1058.09054782142	138.04072345119	2204.68247334187	1818.39150170013	147	2659.04700671127	1647.30337470691	127.159183168863	3611.97001403758	1510.44540690032	135.988250197392	2241.27058605696	796.67879960863	125	1658.55912846928	1354.68547799887	145	1986.75516976591	1216.79430929002	138.527712395515	2408.88044124013	1847.02673796859	159.836057676146	2705.89819912425	1414.86749580571	137.186018359229	2645.39284737825	1423.69841573717	137.881540282327	2045.7190755213	899.09960815945	126.214979589957	2252.42572478603	1540.22646767464	126.685418514846	2880.92029223268	309.522971574954	126	865.006080834322	2492.0441448638	134.267100372742	4115.08168867145
358.749177472994	139.25527053886	788.412663190407	1666.68308396066	175.875138566887	2507.97923429321	1058.82393261528	138.061156926116	2206.76905042764	1819.73265386495	147	2662.79528733889	1647.79634922252	127.175054304917	3614.65128604103	1510.70004918624	135.995349747749	2243.53454013972	796.631490972742	125	1660.17183051931	1354.68054424792	144.998672777103	1989.16927724293	1216.42542297989	138.506489406152	2410.13428077506	1847.88771525937	159.808955424836	2709.04459988093	1415.09743584656	137.166370632599	2647.12796280646	1423.08358026956	137.884775398303	2046.04715146285	899.168683240759	126.233684319371	2254.35346511204	1540.31774395609	126.725600491435	2883.86983685153	309.470239384265	126	865.785651754794	2490.10348071101	134.250101529684	4115.57736901236
358.797379345515	139.243691552249	789.049630841546	1667.28879655875	175.874352818591	2508.74421223545	1059.52673844745	138.082403674188	2208.91979890239	1821.37576751391	147	2667.37224551883	1647.92779152361	127.183485885345	3616.08744158639	1511.00803650325	135.998672777103	2245.57161253188	796.375792363243	125	1661.16961391925	1354.88897565176	144.994022524852	1991.74536038231	1215.90271388404	138.489770179834	2411.06312311578	1848.79490956383	159.759564331893	2711.8183092606	1414.93288102951	137.14688919188	2647.98579843046	1421.41197785266	137.894267536593	2044.54842698957	898.889826140183	126.237007348724	2255.10194298062	1539.38783687081	126.76271363796	2884.34344356384	309.371956845879	126	866.292467262579	2487.38637958541	134.23269656789	4115.66044852084
358.794033598485	139.239818835924	789.573334447893	1667.63791465936	175.876890030076	2509.08634379373	1060.16434921632	138.101082211157	2211.0187622742	1823.37594190814	147	2672.88318669453	1647.56979639718	127.183485885345	3615.84686373109	1511.36218384357	136	2247.22685819751	795.838277434296	125	1661.27091900052	1355.39974418463	144.982272722244	1994.4197123176	1215.12571171297	138.478689319925	2411.21988131319	1849.7051087921	159.682080274764	2713.8282796509	1414.31247946612	137.126974404306	2647.62358103109	1418.43172061034	137.905846523204	2040.73452121631	898.166325321974	126.226729392565	2254.17466668835	1537.14618916222	126.796516220876	2881.4827215635	309.224798406655	126	866.399998162546	2483.73285068495	134.218607825072	4115.22714863117
358.732876672369	139.247552977343	789.908135204572	1667.62169114406	175.883448175406	2508.82284547878	1060.7066375457	138.113897378801	2212.91823006087	1825.75940461902	147	2679.29844911758	1646.64961086159	127.175054304917	3613.70623633524	1511.7686522722	136	2248.42579514284	794.980004566638	125	1660.29625638021	1356.32871362796	144.958493500288	1997.19638445899	1214.0433983991	138.473766691844	2410.25965667753	1850.60635457179	159.573519780219	2714.79512936879	1413.24987967361	137.105732463407	2645.88669456084	1414.03871458262	137.915063851928	2034.3856440478	896.939548790176	126.207265107301	2251.24087560697	1533.41275250047	126.826412582735	2874.73872371422	309.029542038852	126	866.024969809018	2479.06438222596	134.209797581185	4114.27472424595
358.61309529402	139.267618922152	789.991251685901	1667.16179701715	175.894267536593	2507.76952241789	1061.13463727702	138.118459717673	2214.46079871563	1828.49881440418	147	2686.4066177531	1645.1738446357	127.159183168863	3609.72114688979	1512.23381950285	135.998672777103	2249.17708480276	793.812541697223	125	1658.2188176001	1357.78918498161	144.917770049098	2000.14780120696	1212.67701388903	138.474954787376	2408.05874796892	1851.50350689634	159.434971951524	2714.6283243269	1411.83318907535	137.083730897085	2642.87901199096	1408.31985407843	137.91855309762	2025.6488452942	895.211937919462	126.185611274391	2246.21637078867	1528.18191935226	126.853022894742	2864.00758989057	308.792110449836	126	865.144616129389	2473.42420420709	134.207094083788	4112.89341614738
358.440031988386	139.29763725592	789.780938813663	1666.21830008272	175.904519300307	2505.76339586154	1061.43830271843	138.113897378801	2215.49496964702	1831.48798911246	146.998672777103	2693.78833411556	1643.23867717898	127.137676600757	3604.23572222456	1512.75719224958	135.994022524852	2249.55213499029	792.401726382863	125	1655.18299921472	1359.86290795461	144.856613122982	2003.38232228603	1211.13309412536	138.482284902871	2404.75832708514	1852.40638227026	159.273080547663	2713.43115527562	1410.21832313946	137.061156926116	2638.95144041237	1401.56315790049	137.915063851928	2015.03959828679	893.059158004396	126.167687555673	2239.31283756004	1521.65732629066	126.87409096073	2849.71388834184	308.525028057169	126	863.807651287193	2467.00649762156	134.208046117996	4111.25913700459
358.225052398429	139.331269022839	789.267370708573	1664.80763053148	175.90908637678	2502.70351958945	1061.6176827471	138.101082211157	2215.9012514861	1834.54279227662	146.995349747749	2700.85653947166	1641.00405557631	127.112832013765	3597.80465491756	1513.30423661788	135.983599945141	2249.63462317143	790.853890433205	125	1651.47609087627	1362.55077455557	144.774209448794	2006.98650350169	1209.58193909559	138.493505856247	2400.75205147192	1853.29795873234	159.098628105876	2711.4681810759	1408.58893032939	137.04072345119	2634.63426817539	1394.21344423966	137.905846523204	2003.36380819021	890.624402433266	126.158656149942	2231.01028173224	1514.23626646562	126.887839628708	2832.7630038445	308.24553445321	126	862.12798909723	2460.13698940739	134.209378078494	4109.57624792275
357.983599945141	139.361194636056	788.479029158939	1663.0019807235	175.902153042761	2498.57980816754	1061.67943298124	138.082403674188	2215.61158220097	1837.41938220102	146.988250197392	2706.94706162743	1638.65856798984	127.087053926439	3591.05710043588	1513.79789475895	135.964470975436	2249.46185751728	789.291092761577	125	1647.46164763555	1365.74117702318	144.673127237637	2010.95400356069	1208.21642463651	138.50782136665	2396.58629106978	1854.11237605704	158.925076647027	2709.06410585416	1407.11569850279	137.023779221956	2630.49916675729	1386.79318130986	137.894267536593	1991.55409559235	888.095573104561	126.160390457677	2221.98148068555	1506.45088457022	126.892142147546	2814.41071425871	307.974104899562	126	860.271159969819	2453.22826653838	134.206814674564	4108.03484225961
357.730786656065	139.381895171926	787.480436454831	1660.92380022809	175.878207604467	2493.50876340319	1061.63317370152	138.061156926116	2214.62802751564	1839.85418907337	146.976220778044	2711.44670744038	1636.38292744426	127.062484149013	3584.57855215503	1514.12748927911	135.935497326854	2249.00355134937	787.828158899144	125	1643.51159190033	1369.20843307029	144.559229858837	2015.15044811913	1207.20477583023	138.52236534938	2392.81129853713	1854.7304283684	158.767098729151	2706.49020394414	1405.91865871094	137.011749802608	2627.00925758334	1379.81149228254	137.884775398303	1980.4804876998	885.671091663192	126.171020884849	2212.97916230686	1498.87644634784	126.886369820086	2796.06160460461	307.730519191141	126	858.42521566711	2446.70821722394	134.197628275886	4106.77589419083
357.483510388173	139.391890036576	786.364889344266	1658.73638348501	175.836693597807	2487.7442581732	1061.49338860114	138.04072345119	2213.03391839998	1841.6186918193	146.95927654881	2713.92951072638	1634.32080745723	127.04072345119	3578.81196158373	1514.17403973277	135.898119622694	2248.16700059967	786.550542635423	125	1639.93614506548	1372.64090323573	144.440770141163	2019.30687258245	1206.64404760247	138.535467792335	2389.85237458238	1854.99495970006	158.637957494876	2703.88878317284	1405.0448993918	137.004650252251	2624.42116035375	1373.68206148662	137.881540282327	1970.80241978244	883.523899434473	126.185594118937	2204.70887857002	1492.03440966271	126.870037881899	2779.03912455883	307.528710368327	126	856.769640138486	2440.94558869614	134.179616643789	4105.86849683151
357.254220025413	139.392835467529	785.24150433017	1656.62055990345	175.779310133782	2481.66468091932	1061.27893228929	138.023779221956	2210.98899562721	1842.57065244148	146.938843073884	2714.25935646211	1632.56155790626	127.023779221956	3574.0127834443	1513.84260412285	135.856439399695	2246.83642272728	785.502626761653	125	1636.93989884996	1375.69309492277	144.326872762363	2023.06534600857	1206.53593620191	138.544035054965	2387.91358502199	1854.74823186703	158.546367491583	2701.2574879543	1404.468629976	137.001327222897	2622.75066118913	1368.671343415	137.8861026212	1962.88365667291	881.77251677028	126.198955498783	2197.72340725746	1486.30632022599	126.846444535045	2764.39210354031	307.375154903372	126	855.44579005778	2436.18305640042	134.15462082999	4105.31843485945
357.053626753408	139.38994788138	784.219896845873	1654.74688997184	175.712785323791	2475.73535008593	1061.01270932382	138.011749802608	2208.71947409191	1842.68545348924	146.917596325812	2712.63597370422	1631.15779622407	127.011749802608	3570.26569023555	1513.11081149038	135.816514114655	2244.93184828421	784.692610008765	125	1634.61344630459	1378.06995869389	144.225790551206	2026.05956211962	1206.79480891241	138.546961299303	2386.94362242675	1853.88224722805	158.49615183253	2698.4706889364	1404.11478323338	137	2621.79472187098	1364.8870707968	137.898917788843	1956.77644949584	880.466869537777	126.206814674564	2192.35349289918	1481.89264945627	126.818968219936	2752.76405688416	307.267297050918	126	854.535979065649	2432.51765450033	134.124861433113	4105.08208655273
356.88777731147	139.389095053515	783.391162542246	1653.24656947902	175.645581143184	2470.43916792211	1060.72113036533	138.005977475148	2206.48185912132	1842.05970378623	146.898917788843	2709.55842944156	1630.13357416591	127.004650252251	3567.53456082141	1512.04571209696	135.785020410043	2242.46226880961	784.10358657835	125	1632.94481109982	1379.5890103792	144.143386877018	2028.00400092877	1207.26522745497	138.541835196866	2386.68919321045	1852.36761363595	158.48586152809	2695.36485353188	1403.88204963665	137	2621.22883351465	1362.28977284369	137.917596325812	1952.29056091105	879.590041715889	126.208050855597	2188.69304255751	1478.8079262102	126.791831910094	2744.3609063952	307.196389187563	126	854.055815651373	2429.90449900799	134.094153476796	4105.08842759315
356.759318039438	139.394551338002	782.821664256861	1652.19681407761	175.58618688317	2466.21606173652	1060.43536158073	138.005977475148	2204.54296828023	1840.89486122112	146.8861026212	2705.73458070541	1629.50430533241	127.001327222897	3565.75496345945	1510.80104941661	135.767642903526	2239.57037343199	783.709165578547	125	1631.86973976789	1380.22409470693	144.083557173799	2028.78472645469	1207.77497699263	138.527811649749	2386.79711738056	1850.284452431	158.509500864095	2691.82826531607	1403.68332303827	137	2620.72743355706	1360.7479204512	137.938843073884	1949.10534070582	879.075053301702	126.203395865745	2186.63433604393	1476.91610929093	126.768620355184	2739.00983681277	307.148304328155	126	853.963713815136	2428.19077306504	134.065807178367	4105.26918871523
356.669547753948	139.409276436551	782.546448086363	1651.62168189351	175.543433566992	2463.3948665628	1060.19142780863	138.011749802608	2203.13684184315	1839.45697400748	146.881540282327	2701.93118646774	1629.29198860281	127	3564.89779660492	1509.59521257493	135.767642903526	2236.52927992106	783.487372146631	125	1631.30937395015	1380.10848926551	144.047483974859	2028.49482115061	1208.17604282132	138.505691240003	2386.91748582688	1847.81049350451	158.557037611417	2687.85729949996	1403.4666982892	137	2620.05765943611	1360.08864345303	137.95927654881	1946.87654534371	878.830019602735	126.19534428118	2185.92568498325	1475.99373908721	126.749491385479	2736.26670038761	307.107757521222	126	854.173987442954	2427.17416687287	134.042050674087	4105.55828444661
356.618685939446	139.434248491641	782.572109153987	1651.49917246266	175.523000092065	2462.16142082059	1060.02955725619	138.023779221956	2202.44160749558	1838.02483488657	146.8861026212	2698.83229818523	1629.51930025295	127	3565.02223521707	1508.65795275355	135.785020410043	2233.71552216215	783.427500700142	125	1631.21280382919	1379.49837730503	144.035454555511	2027.42652817458	1208.37763273427	138.477908705138	2386.80092493266	1845.19566186053	158.618745952818	2683.58866261778	1403.22991496178	137	2619.15029859006	1360.15003053693	137.976220778044	1945.34148314137	878.766404445206	126.186018359229	2186.25980135516	1475.79814228147	126.734633934993	2735.57202259699	307.062751347899	126	854.580480413797	2426.65905972347	134.023779221956	4105.91713234779
356.607773857707	139.466815289433	782.881579279175	1651.78062284501	175.527562430938	2462.53944436827	1059.9880352455	138.04072345119	2202.55387439255	1836.84833195381	146.898917788843	2696.9161221312	1630.20073940609	127	3566.28814451928	1508.18327159323	135.816514114655	2231.55595484644	783.529353215212	125	1631.57772763817	1378.70926028198	144.046156751962	2026.02580141554	1208.36420921634	138.448409128295	2386.35287531363	1842.72112412819	158.685418514846	2679.28739597301	1403.02065739641	137	2618.1150368397	1360.81898923002	137.988250197392	1944.37663168818	878.815802486443	126.176557150985	2187.33630212447	1476.11686877505	126.723065317777	2736.36084564142	307.005723483373	126	855.079011875946	2426.49351756019	134.011749802608	4106.32535018456
356.63715146264	139.502997994537	783.437601589921	1652.40008234192	175.556248734635	2464.3965359133	1060.09822419029	138.061156926116	2203.48038806146	1836.10804394507	146.917596325812	2696.4057151681	1631.32221342155	127	3568.87643688866	1508.28639999075	135.856439399695	2230.44034875854	783.793376939696	125	1632.42791826864	1378.04534917049	144.077579698651	2024.79043613441	1208.18142757279	138.420764381298	2385.62215010182	1840.65419044638	158.749903207917	2675.30809621751	1402.91664075063	137	2617.196934999	1362.02100748355	137.995349747749	1943.98389014451	878.936927535915	126.166889389524	2188.88870057485	1476.78734519828	126.713306514452	2738.12847270632	306.935497326854	126	855.577559413824	2426.5826464022	134.004650252251	4106.76630150647
356.704897117849	139.536777859777	784.183643119123	1653.2779261452	175.604865420138	2467.4477810318	1060.37311771849	138.082403674188	2205.12763562452	1835.90696551273	146.938843073884	2697.28169094069	1632.80887865236	127	3572.87433486623	1508.97684881662	135.898119622694	2230.63251244742	784.200322431582	125	1633.76878076029	1377.73230584558	144.125659599262	2024.16338005198	1207.90889260945	138.398981324938	2384.74678190513	1839.21340907078	158.808522922548	2672.01927204066	1402.99559893362	137	2616.68411383701	1363.69397702986	137.998672777103	1944.24067768339	879.108717269913	126.155948052887	2190.70808540486	1477.69259124836	126.70568096626	2740.46856025817	306.858194337653	126	856.011925939663	2426.87908198779	134.002654445794	4107.23212351839
356.804237293126	139.564403605613	785.046865208653	1654.32192649925	175.666827891256	2471.28215308172	1060.8004591134	138.101082211157	2207.30512653748	1836.26805156711	146.95927654881	2699.32580838942	1634.52690189437	127	3578.18335589472	1510.15698242348	135.935497326854	2232.2095713441	784.708604306849	125	1635.55223199113	1377.88663403839	144.184284051494	2024.45587762471	1207.63086221211	138.384263467298	2383.89311449647	1838.53882192926	158.858738512028	2669.74503380698	1403.31240484391	137	2616.82554134454	1365.75948092105	138	1945.22493000313	879.322043224604	126.142238939629	2192.61987311668	1478.7410547164	126.699036655813	2743.04502863203	306.784592694982	126	856.34494990046	2427.36164254202	134.004650252251	4107.69503715804
356.92348032536	139.584859798216	785.939349186373	1655.42726351354	175.734546021615	2475.38997171681	1061.33926520432	138.113897378801	2209.73640490247	1837.142812986	146.976220778044	2702.18274658701	1636.2912060266	127	3584.46755409974	1511.65107546015	135.964470975436	2235.03198185007	785.251827734118	125	1637.64997712165	1378.51407073771	144.244642811461	2025.79057783689	1207.41429216988	138.377071196388	2383.20801118801	1838.68217766999	158.899869048056	2668.71648601579	1403.88158889172	137	2617.77069420576	1368.09643574441	138	1946.95577823165	879.566541412513	126.125647181409	2194.49964095906	1479.84572795962	126.693839725879	2745.60593013183	306.727811094085	126	856.57619877398	2428.00564293995	134.011749802608	4108.14411994684
357.045547426727	139.599953310026	786.766649234198	1656.47750717647	175.800904615266	2479.22481016095	1061.92058408445	138.118459717673	2212.09661127511	1838.4250122947	146.988250197392	2705.44413249904	1637.89220597539	127	3591.16690729465	1513.23784007666	135.983599945141	2238.75725998189	785.745785344437	125	1639.85283977766	1379.52286756215	144.297383264146	2028.09039433329	1207.2955910123	138.375743973492	2382.79713104676	1839.59835741969	158.932865598736	2669.04674805957	1404.66966813278	137	2619.55206198425	1370.53463742374	138	1949.36901982243	879.82591758452	126.105732463407	2196.26840524041	1480.91505572783	126.690063204875	2747.97759628357	306.700600111606	126	856.739523531405	2428.76617723557	134.023779221956	4108.56962892605
357.153205831658	139.613973728657	787.444496848887	1657.36393205153	175.860472819763	2482.2845815859	1062.465309416	138.113897378801	2214.06956067596	1839.97911556421	146.995349747749	2708.72300940491	1639.14282262688	127	3597.60047263129	1514.70108794753	135.994022524852	2242.90963480504	786.108845275935	125	1641.90645816928	1380.76867796101	144.33343930763	2031.11640196685	1207.28203715803	138.37828599215	2382.7334538473	1841.15531683277	158.957949325913	2670.73315273061	1405.60337132959	137	2622.10745767543	1372.86921798339	138	1952.32035180183	880.078570291387	126.083730897085	2197.8933832133	1481.85188428759	126.688334459362	2750.05828227793	306.711390221435	126	856.892876451252	2429.56571747646	134.04072345119	4108.96138138604
357.229448658905	139.63083208234	787.906911104881	1657.99394144587	175.90908637678	2484.1848788347	1062.89298106873	138.101082211157	2215.4004947363	1841.65536775283	146.998672777103	2711.70494590065	1639.91170393184	127	3603.09529520043	1515.86836206998	135.998672777103	2246.9672401643	786.276807205762	125	1643.55767317855	1382.08712423527	144.346254475274	2034.5239003013	1207.35883673005	138.382581270079	2383.06532134874	1843.15229802096	158.976220778044	2673.66179906428	1406.58575282643	137	2625.31018681441	1374.88554324687	138	1955.60353832175	880.299990858398	126.062484149013	2199.40466544728	1482.56724584727	126.688736737026	2751.83909081995	306.764146150886	126	857.11257985884	2430.30706074149	134.062484149013	4109.33220020974
357.262697301475	139.651358277818	788.12283778393	1658.31122398985	175.946199523305	2484.73710577543	1063.14192640876	138.082403674188	2215.95756735889	1843.31653304679	147	2714.21130527881	1640.14435947646	127	3607.11892991014	1516.63467896816	136	2250.46174498574	786.214467729926	125	1644.6038005248	1383.32957122788	144.33343930763	2037.94121718559	1207.48844845313	138.386562579631	2383.81892861894	1845.33451807978	158.988250197392	2677.61137855251	1407.50191211598	137	2628.9876748055	1376.37703935543	138	1958.96863845625	880.465839175446	126.045373703441	2200.85795238943	1482.98345894545	126.692873039526	2753.35954889553	306.855500558336	126	857.468696445553	2430.87666571405	134.087053926439	4109.67470524543
357.246559104478	139.674710756174	788.100361302936	1658.30292222253	175.971570525793	2483.9756074466	1063.18028090263	138.061156926116	2215.75714521678	1844.85794081317	147	2716.21767438282	1639.86780468766	127	3609.35313702566	1516.97550219551	136	2253.04361546726	785.920129489244	125	1644.91735224156	1384.38572061029	144.297383264146	2041.02689308657	1207.6204508305	138.3885567074	2384.97601158223	1847.43548355983	158.994022524852	2682.25072537714	1408.24349582966	137	2632.92304932358	1377.16901167645	138	1962.12715436666	880.557278992966	126.036856247461	2202.31278123457	1483.04696191176	126.701818569705	2754.681566282	306.977801992715	126	858.006676160019	2431.17188052592	134.112832013765	4109.96499780816
357.181642812812	139.697018131681	787.883265504231	1658.00953079524	175.986922974495	2482.1507909154	1063.01470853998	138.04072345119	2214.95920230634	1846.2269966203	147	2717.83830887677	1639.16633339938	127	3609.71820242974	1516.92458951492	136	2254.51778901556	785.417865102207	125	1644.45578799349	1385.18337948899	144.244642811461	2043.51179314999	1207.68956514114	138.386450907544	2386.44181708169	1849.19991203521	158.992695301956	2687.13724876421	1408.71180487491	137	2636.84279638627	1377.13181389453	138	1964.75851227129	880.563597602202	126.040179276815	2203.79668561904	1482.73002277296	126.715955398024	2755.83967281836	307.117482266015	126	858.732627059423	2431.11589385398	134.137676600757	4110.15261946255
357.075358934121	139.713850688827	787.547798403067	1657.51561213224	175.995349747749	2479.68482455606	1062.68779864772	138.023779221956	2213.83708812602	1847.42081628213	147	2719.29310749816	1638.15767227411	127	3608.33542157243	1516.55878330175	136	2254.83337659978	784.748152893587	125	1643.24604748853	1385.6887422714	144.184284051494	2045.21074189329	1207.62606098534	138.379932386507	2388.03677017339	1850.4213650372	158.982272722244	2691.75107564255	1408.83715477517	137	2640.42518709837	1376.19928327396	138	1966.53406209795	880.482854349338	126.057123506049	2205.28223280856	1482.03349878105	126.735348994938	2756.81371417879	307.260005559985	126	859.607985909818	2430.67503849307	134.159183168863	4110.1757794177
356.938487740423	139.722684546919	787.184531681158	1656.93304955045	175.998672777103	2477.08969965354	1062.26464405723	138.011749802608	2212.71575772271	1848.4734718524	147	2720.83539086299	1636.96592097159	127	3605.47771332621	1515.97275471575	136	2254.0597175605	783.958263216353	125	1641.36905503162	1385.89833246509	144.125659599262	2046.02666629173	1207.3631129816	138.367321937838	2389.4917584304	1850.96746894409	158.958493500288	2695.54070769562	1408.58674913313	137	2643.31616437893	1374.3809355118	138	1967.15121929555	880.318098614396	126.086263370969	2206.67642325456	1480.97794879029	126.759407764061	2757.51164951483	307.388618758599	126	860.55271719724	2429.8505380967	134.175054304917	4109.96978713037
356.785971669256	139.721476237019	786.881188384158	1656.37617224628	176	2474.87481714336	1061.81931887522	138.004650252251	2211.90499651521	1849.43480043271	147	2722.68527466731	1635.69678826936	127	3601.49659383889	1515.25580346994	136	2252.34394325993	783.090307254066	125	1638.9353299567	1385.82700196203	144.076252475754	2045.93029880742	1206.84657791487	138.349160479107	2390.5020942611	1850.78994013505	158.917770049098	2698.01820081396	1407.96842271309	137	2645.19224621385	1371.76535720552	138	1966.39696280614	880.075777632944	126.123127125378	2207.83699042769	1479.60577975171	126.785971669255	2757.78712406501	307.48770480416	126	861.461834482293	2428.6838471788	134.183485885345	4109.49853495113
356.630919995718	139.709439576761	786.705358375361	1655.93522409846	176	2473.44773097528	1061.41514170273	138.001327222897	2211.63440096232	1850.34529695697	147	2724.96398318221	1634.4300955343	127	3596.75410261293	1514.48254027099	136	2249.86842275431	782.179792415534	125	1636.06421566306	1385.50452500253	144.040179276815	2044.94919156484	1206.05118005807	138.325405653515	2390.79718843822	1849.93481157923	158.856613122982	2698.85418191624	1407.03713509147	137	2645.83156082586	1368.52539359301	138	1964.20610307276	879.759807011636	126.162239137273	2208.60291275049	1477.96940143412	126.812654417874	2757.47801765117	307.543954786477	126	862.224643050989	2427.23058735708	134.183485885345	4108.76957393453
356.485511756851	139.687805540557	786.69309845691	1655.66089892142	176	2473.05115390233	1061.09504583326	138	2212.01644599807	1851.22111338119	147	2727.6672824513	1633.21680733462	127	3591.62660376309	1513.70777696601	136	2246.84940725206	781.252450631774	125	1632.8950378847	1384.97256431261	144.017727277756	2043.17831916624	1204.98879999127	138.298850372994	2390.20742280413	1848.52725501241	158.775536671691	2697.95522068628	1405.88484596385	137	2645.17783884117	1364.90078642648	138	1960.70577641771	879.372749705214	126.196301052989	2208.83012513422	1476.13581186584	126.836149423432	2756.45022559091	307.547282553432	126	862.745700346855	2425.56160716618	134.175054304917	4107.83040642121
356.357415207763	139.65911923686	786.841984885699	1655.54999800174	176	2473.71737806719	1060.871553117	138	2213.02369419494	1852.0420113628	147	2730.65471445328	1632.08838381444	127	3586.47415050041	1512.97097628351	136	2243.52160336452	780.331088177882	125	1629.57859265509	1384.28829047272	144.005977475148	2040.7730684876	1203.71020872165	138.27388075164	2388.71259523129	1846.75461587046	158.679104712785	2695.49839424733	1404.62881545809	137	2643.37131390331	1361.17025332807	138	1956.21848751947	878.92110455725	126.21954192883	2208.43317326893	1474.18707854023	126.853906925811	2754.64644093584	307.49585216819	126	862.963847373725	2423.7606071589	134.159183168863	4106.76917154338
356.250446563322	139.627574248688	787.118928998262	1655.55412499271	176	2475.28040316555	1060.73597251955	138	2214.51925869018	1852.80846907484	147.001327222897	2733.78252148048	1631.04737572168	127	3581.62709857267	1512.30303309779	136	2240.16548888066	779.42681315481	125	1626.26786063556	1383.51939187215	144.001327222897	2037.96680775661	1202.29048087344	138.254747044334	2386.43628874731	1844.85765098441	158.575629913695	2691.95630669765	1403.39378780854	137	2640.75336571434	1357.61618346792	138	1951.23823358235	878.414708488755	126.227794757601	2207.41877029708	1472.20821410166	126.865123072014	2752.11708379145	307.393129124898	126	862.865246487666	2421.91883357446	134.137676600757	4105.71384233455
356.165960847987	139.598081912755	787.471536675154	1655.58409769287	176	2477.4083112985	1060.66405834948	138	2216.29464952923	1853.56104968686	147.004650252251	2737.00109250707	1630.07304860276	127	3577.33981049978	1511.7527906245	136	2237.12201214141	778.538575555481	125	1623.09329302394	1382.75901272231	143.998672777103	2035.07678199613	1200.80480187022	138.24525483647	2383.58983641728	1843.11929994931	158.474971942831	2688.04276521922	1402.28825613874	137	2637.80559969767	1354.47673750988	138	1946.34737825739	877.874582024284	126.21954192883	2205.88038968474	1470.2777588794	126.870488314637	2748.99603668269	307.252362856339	126	862.484566768111	2420.13828339501	134.112832013765	4104.79485708709
356.102663425828	139.574325408474	787.844606372518	1655.52219607459	176	2479.67487456882	1060.62855558927	138	2218.13691633944	1854.42407730969	147.011749802608	2740.4899195178	1629.10898107742	127	3573.73847453746	1511.39363736644	136	2234.78579532088	777.646062519284	125	1620.13208387634	1382.1321964413	143.994022524852	2032.49464206509	1199.30006325424	138.247444384116	2380.38953588689	1841.8468125029	158.385397960361	2684.61964860798	1401.38259293944	137	2635.04991249999	1351.90158031343	138	1942.10657594903	877.32675878641	126.196301052989	2203.98976561749	1468.43959690603	126.873025595694	2745.47084633937	307.094246952396	126	861.898035293716	2418.51107939438	134.087053926439	4104.14536719468
356.059777951843	139.557199993848	788.192785896325	1655.24078565493	176	2481.62140570026	1060.61146639909	138	2219.86882082621	1855.62250572513	147.023779221956	2744.70092144208	1628.06502024507	127	3570.76023087538	1511.33090454088	135.998672777103	2233.56951375254	776.706339557385	125	1617.37358910805	1381.79635074091	143.980945499347	2030.65774962274	1197.77603401681	138.262392806893	2376.97539906581	1841.35137960947	158.309943650757	2682.55685483181	1400.6988203264	137	2632.93520249787	1349.93143072783	138	1938.94439504044	876.799848760795	126.162239137273	2201.95798252203	1466.69078757855	126.876890030076	2741.72355788978	306.945336398667	126	861.21228548959	2417.11904492887	134.062484149013	4103.87638703286
356.035734172251	139.546007606355	788.491850640731	1654.62596902934	176	2482.84821156081	1060.60864223071	138	2221.39340181285	1857.43129482938	147.04072345119	2750.27558593156	1626.83361700914	127	3568.14191191226	1511.69024452931	135.995349747749	2233.81746646284	775.664707476612	125	1614.71824118244	1381.93993464183	143.952516025141	2029.98811995732	1196.18900619243	138.286235186724	2373.38177685205	1841.90116508911	158.245440977611	2682.56207033992	1400.20883436524	137	2631.73975324592	1348.49854622986	138	1937.07243844154	876.319715247092	126.123127125378	2199.98901458038	1464.9762153463	126.884775398303	2737.88175350734	306.833652322291	126	860.543261980803	2416.01249220973	134.04072345119	4104.05065164189
356.032131526158	139.536507739921	788.741858364549	1653.61055951713	176	2483.08307094709	1060.63441016984	138	2222.69918381028	1860.09976893991	147.059829703219	2757.8327281069	1625.31197092789	127	3565.47161978516	1512.57206491429	135.988250197392	2235.69288725126	774.468430388988	125	1612.00073982225	1382.74087537952	143.90136999424	2030.79855041234	1194.48132770069	138.315820794673	2369.56150674855	1843.65237403221	158.183485885345	2685.00528126316	1399.84935571767	137	2631.51134135514	1347.45819211825	138	1936.44738352978	875.903369656377	126.084936148072	2198.25373208993	1463.21157369134	126.898917788843	2734.01627631318	306.784257616636	126	860.00311724713	2415.21255654245	134.023779221956	4104.67212787617
356.05213422711	139.525172680722	788.964932418762	1652.20481269676	176	2482.24373797542	1060.71624271408	138	2223.84530177162	1863.76380442602	147.077753421938	2767.71467920377	1623.44170812102	127	3562.32827658232	1514.0049047524	135.974893555147	2239.0862285885	773.090984062805	125	1609.06063957124	1384.31822494751	143.821084098418	2033.20474695777	1192.61909736896	138.344941708058	2365.46950802329	1846.58317395868	158.113099212651	2689.80704333785	1399.54515386326	137	2632.08346907646	1346.64345856767	138	1936.81239734799	875.561811084146	126.052473253798	2196.8675552141	1461.3207732741	126.916269102915	2730.15952749083	306.81513638895	126	859.684123591075	2414.71766590123	134.011749802608	4105.67100034676
356.101284451554	139.508775129171	789.201186952853	1650.51673900695	176	2480.48208987688	1060.8894485606	138	2224.94307988009	1868.3745619129	147.089332408549	2779.79300500539	1621.25160048593	127	3558.45273709489	1515.91818002705	135.953299073663	2243.58961196538	771.555993922977	125	1605.82239527588	1386.68770491607	143.709706775648	2037.07048834077	1190.63337849878	138.368535054912	2361.15313144948	1850.46254306136	158.024293823023	2696.42905329877	1399.23952363066	137	2633.14376782458	1345.92841757479	138	1937.78522478955	875.299086471528	126.028429474207	2195.90227342704	1459.27606527475	126.934192821633	2726.35604634537	306.932356797104	126	859.650235326346	2414.51914989736	134.004650252251	4106.9252822607
356.18489337673	139.486318322938	789.496063184905	1648.74177094701	176	2478.17164481942	1061.18023948294	138	2226.11808428828	1873.67280371618	147.090118156844	2793.39800583765	1618.8720443741	127	3553.89006417792	1518.13248947732	135.921115796128	2248.55113253998	769.946885707664	125	1602.35759882059	1389.7331652051	143.571246860331	2042.00849611496	1188.63645158552	138.380567949029	2356.81647950502	1854.86008824674	157.912789032155	2703.96810317627	1398.91290820976	137	2634.33451358179	1345.27316810208	138	1938.97877435725	875.11612021562	126.013077025505	2195.39722890114	1457.12489512293	126.947526746202	2722.70394268049	307.129446726875	126	859.932278559643	2414.6093255069	134.001327222897	4108.27957481118
356.308020502108	139.457697214943	789.893024806734	1647.14173938499	176	2475.85699288652	1061.60065165927	138	2227.47820246305	1879.22940617606	147.077736266483	2807.39716423471	1616.53465959789	127	3549.06623244747	1520.39220878712	135.8760898261	2253.20935578694	768.404849777956	125	1598.91814635783	1393.21782750626	143.415669258532	2047.4511133949	1186.81737130304	138.378572142572	2352.83534856054	1859.22104589576	157.781514146838	2711.34282377578	1398.59840156171	137	2635.3650687489	1344.7481522283	138	1940.1088148223	875.011948065839	126.004650252251	2195.3694410311	1454.99081067745	126.951114333191	2719.3617363955	307.387171904866	126	860.519034623243	2414.9830891724	134	4109.57282700732
356.470259639381	139.425943690296	790.416273866134	1645.98986595426	176	2474.13170713801	1062.1356763427	138	2229.06732860698	1884.51727517412	147.051413229787	2820.38541980084	1614.53778460176	127	3544.73891825778	1522.41709379187	135.816687837942	2256.85286758939	767.109941593967	125	1595.90627995484	1396.82149045581	143.258611478715	2052.75865590082	1185.41094832244	138.361435504554	2349.69811389166	1862.97313784974	157.641983304264	2717.51521568645	1398.37681294188	137	2636.0807208545	1344.51797126492	138	1941.05906481744	874.989684732981	126.001327222897	2195.83449832159	1453.06098139246	126.941549271054	2716.54819283727	307.679366570646	126	861.36330468043	2415.64747995424	134	4110.68775349476
356.665233469473	139.394331072687	791.064312080411	1645.51446561452	176	2473.51533294391	1062.74261778336	138	2230.84896414096	1889.02185325469	147.012701061821	2830.97973105627	1613.18452997142	127	3541.84449033138	1523.9600280872	135.742715744182	2258.98348293738	766.245951556712	125	1593.79772260913	1400.20238142155	143.117870647553	2057.35578067486	1184.64859893882	138.33291228871	2347.91193508526	1865.6462784367	157.511939862379	2721.71420378676	1398.35747659119	137	2636.5048704561	1344.79814325174	138	1941.90537730435	875.055749128823	126	2196.79299385563	1451.5496821859	126.916465543877	2714.48566598235	307.97648797693	126	862.385009230755	2416.61672497648	134	4111.55269823983
356.880125146052	139.367334355692	791.806255431982	1645.84492924803	176	2474.32940778563	1063.35350247473	138	2232.69807817939	1892.342080618	146.963594185276	2838.10301056066	1612.71545599022	127	3541.23833541448	1524.86073014715	135.655749731121	2259.39981128273	765.960281964605	125	1593.01442412945	1403.05999075762	143.009833509592	2060.82320323039	1184.70741907322	138.297549342542	2347.86631168295	1866.97683136044	157.409900879414	2723.58005843693	1398.65289332547	137	2636.80979621756	1345.79082063068	138	1942.86653606314	875.222278598908	126	2198.23328752353	1450.65192597225	126.874762603203	2713.36121029341	308.252536579625	126	863.482708350345	2417.90022002261	134	4112.15744993898
357.096170101045	139.348654140035	792.585257497946	1646.97846721262	176	2476.62398285963	1063.88639070974	138	2234.42401020041	1894.2703106443	146.905753047604	2841.20483534063	1613.24006327165	127	3543.485885455	1525.06742758135	135.559229858837	2258.23612769875	766.326620040688	125	1593.82570901876	1405.18217511834	142.947886028005	2062.97693990319	1185.66003168326	138.262478682444	2349.73378839617	1866.94995446513	157.351276427182	2723.22821109042	1399.34082771698	137	2637.26287827718	1347.61805304365	138	1944.23411706545	875.503650371034	126	2200.1289067433	1450.50296223978	126.816687837942	2713.28806721646	308.488233860907	126	864.556531992011	2419.49349154067	134	4112.53953811718
357.291932807918	139.33836070711	793.329281994968	1648.77311939858	175.998672777103	2480.15670657724	1064.25836477974	138	2235.80599920391	1894.81560335167	146.840033782615	2840.35318657697	1614.711774305	127	3548.69415615259	1524.64592347692	135.45814764768	2255.9039534733	767.326840262966	125	1596.26923755366	1406.48151796946	142.936403286341	2063.87721715801	1187.46145425285	138.232719285567	2353.42859396539	1865.79373628265	157.343549526672	2721.20250261823	1400.44221728517	137	2638.15321252523	1350.28054037679	138	1946.28224711937	875.914642918832	126	2202.44799574075	1451.15360548505	126.744042967078	2714.30289994699	308.675579443033	126	865.52955223937	2421.37452808296	134	4112.78011999841
357.448837632614	139.336497175925	793.968350539883	1650.9843034455	175.995349747749	2484.45669871481	1064.40438417414	138	2236.65151639588	1894.18940106268	146.766494966138	2836.19076494041	1616.93106679351	127	3556.49214227204	1523.74877876836	135.358366466975	2252.98953137553	768.854150850442	125	1600.14469625596	1406.99397995765	142.972978017178	2063.80105453005	1189.95191246099	138.212086175549	2358.62430632874	1863.9054929179	157.384779316934	2718.31715481352	1401.90430645584	137	2639.70639678988	1353.64039650587	138	1949.17956810975	876.460088420363	126	2205.14812402091	1452.54882385967	126.661727206268	2716.35920088551	308.813779400373	126	866.360537322858	2423.47758761461	134	4112.9633623286
357.554570096022	139.340216986754	794.444039156537	1653.32146244836	175.988250197392	2488.91966892705	1064.29355383856	138.001327222897	2236.83136791615	1892.7395486129	146.686204263142	2829.74253148201	1619.59368624456	127.001327222897	3566.11656584244	1522.57596048382	135.265715836247	2250.1101975974	770.73558959779	125	1605.06009942681	1406.85653791819	143.047483974859	2063.15947206943	1192.8924967662	138.202418414088	2364.82880784166	1861.74574424682	157.464474894067	2715.44456922446	1403.60686906386	137	2642.02053133661	1357.4406901049	138	1952.92766950335	877.13216596439	126	2208.18231363431	1454.54527569406	126.575629913695	2719.34782929987	308.910465351054	125.998672777103	867.053298049611	2425.71091512359	134	4113.16489750693
357.60704334982	139.346192424075	794.726951244335	1655.52457707512	175.976220778044	2492.95634882052	1063.9400306893	138.004650252251	2236.3220374558	1890.87345344197	146.601351290847	2822.18009483144	1622.36125071035	127.005977475148	3576.58911674563	1521.32759120663	135.186394322913	2247.77878975157	772.770995358469	125	1610.52119202498	1406.26350184183	143.146033712132	2062.39592533923	1196.01717645709	138.202648979225	2371.49703742734	1859.72704866332	157.567861779778	2713.30028576804	1405.3856526718	137	2645.03739247981	1361.3596088603	138	1957.34823176192	877.907798360534	126	2211.49417660958	1456.93965885163	126.493676672244	2723.11758318307	308.976295247097	125.995349747749	867.646788718789	2427.96481025302	134	4113.43850778346
357.614676508692	139.351964751535	794.821573844711	1657.4232639601	175.95927654881	2496.13781623945	1063.40370289779	138.011749802608	2235.22133368591	1888.96968601925	146.515800210476	2814.57832356891	1624.93319152704	127.016400054859	3586.94624222896	1520.16016476389	135.124257907312	2246.31030970136	774.770558185657	125	1616.04026263006	1405.41582965239	143.254467565536	2061.8878006888	1199.07667535448	138.21070056379	2378.13136426424	1858.1188780745	157.680431935682	2712.28243762513	1407.0619353196	137.001327222897	2648.55098138017	1365.06905337733	138	1962.11317674247	878.747483483118	126	2215.00342055261	1459.50544792235	126.422869140121	2727.48186664036	309.021668950537	125.988250197392	868.195286527293	2430.12738577012	134	4113.79434640993
357.593975834879	139.356691510666	794.765469045501	1658.96883646329	175.938843073884	2498.28299635594	1062.77720937293	138.023779221956	2233.73043083542	1887.31325074604	146.436902937435	2807.72718291935	1627.10717141438	127.036856247461	3596.40585019193	1519.16758876024	135.083557173799	2245.77562837084	776.589623195974	125	1621.21514097632	1404.47546762021	143.361461696999	2061.85497178791	1201.87462976143	138.225778133353	2384.33530572439	1857.0062738033	157.791936726549	2712.39112307846	1408.47867524699	137.004650252251	2652.23183137296	1368.29883863859	138	1966.79789933715	879.602736280115	126.001327222897	2218.59844531737	1462.03464780561	126.36892343645	2732.22644859135	309.053852228072	125.976220778044	868.74747207001	2432.10918467693	134	4114.21678896136
357.565102517529	139.362147795153	794.623773518055	1660.22243835213	175.917596325812	2499.50368025415	1062.16838961604	138.04072345119	2232.1340986255	1886.09394114436	146.372246465803	2802.14011428361	1628.79771847874	127.069152925397	3604.45973588792	1518.38584599696	135.065285721668	2246.04219293414	778.136272651198	125	1625.76489843454	1403.54327180705	143.460426129789	2062.32838515475	1204.27082607101	138.246993951379	2389.82351543761	1856.30594404437	157.898119622694	2713.29859946618	1409.52673402302	137.011749802608	2655.69823002966	1370.87720523832	138	1970.97528727796	880.414818402412	126.004650252251	2222.1230598935	1464.35364976255	126.334605175469	2737.09738074473	309.075098976144	125.95927654881	869.322179118805	2433.84633642824	134	4114.66713406014
357.546685838422	139.368638860913	794.474474359276	1661.31062076117	175.898917788843	2500.13888217327	1061.67420887977	138.061156926116	2230.73933266234	1885.39314857171	146.328998151409	2798.05784295689	1630.02573131262	127.113630179914	3610.89735565459	1517.81801501909	135.070200531554	2246.8688090557	779.373269096676	125	1629.54324457435	1402.66548354302	143.548690044816	2063.18739737654	1206.17586785841	138.27388075164	2394.38036015026	1855.83564014421	157.998672777103	2714.46786284677	1410.15834366123	137.023779221956	2658.56720902032	1372.75191984202	138	1974.28990824906	881.127353396765	126.011749802608	2225.3750901473	1466.33987746752	126.320820818163	2741.79520220653	309.084682156298	125.938843073884	869.897279620174	2435.3124946985	134	4115.08063416755
357.550008867775	139.376977720789	794.38484151793	1662.36129552728	175.8861026212	2500.62804539171	1061.35706936534	138.082403674188	2229.80291620418	1885.20200976134	146.310726699279	2795.50432228835	1630.88499739212	127.167339822261	3615.73968699335	1517.45669821878	135.095563875471	2247.98767831939	780.308962130246	125	1632.51238180588	1401.8604220022	143.627491142484	2064.21497251445	1207.53924098241	138.305276243052	2397.85279748033	1855.38232347946	158.095902902159	2715.3317985935	1410.38657991385	137.04072345119	2660.53676751009	1373.97962666278	138	1976.53201041017	881.686684376092	126.023779221956	2228.1302233771	1467.91711467984	126.325639015066	2745.99835011671	309.079695577133	125.917596325812	870.416843647795	2436.50513953802	134	4115.39650628045
357.579506765931	139.386992382145	794.393936805171	1663.4559447538	175.881540282327	2501.35696502994	1061.23651404383	138.101082211157	2229.46753610043	1885.44627686232	146.318189090045	2794.34022497442	1631.49921702691	127.224209336535	3619.16379154241	1517.29682187704	135.136204150883	2249.18567789099	780.981910037533	125	1634.71658775235	1401.13615089951	143.698228120269	2065.18195985602	1208.34923770663	138.338904881485	2400.13386517561	1854.77754546048	158.190335995695	2715.43740763615	1410.28026351243	137.059829703219	2661.43634936357	1374.71045832888	138	1977.67848081058	882.055114312546	126.04072345119	2230.17802041539	1469.06029725201	126.345465819689	2749.40372948278	309.061261742572	125.898917788843	870.813552104296	2437.46031628624	134	4115.55663800612
357.62971000713	139.398291752016	794.501895782045	1664.5987307653	175.8861026212	2502.53320137031	1061.28468929995	138.113897378801	2229.72020875695	1885.99371887569	146.346072489992	2794.28233928651	1631.97792438275	127.276136516073	3621.41424463666	1517.33012303673	135.187345582126	2250.32956107154	781.446527113344	125	1636.25432651576	1400.50466597724	143.762192447299	2065.90610798728	1208.63231009724	138.369504244574	2401.18276392915	1853.92971592336	158.279388787504	2714.53636349302	1409.94216175591	137.077753421938	2661.25627976896	1375.14621503593	138	1977.89198733342	882.217729413503	126.061156926116	2231.36566538302	1469.7920323141	126.375743973492	2751.77935023323	309.037048977295	125.8861026212	871.035368102264	2438.25599624496	134	4115.51062890415
357.690854515393	139.408717806496	794.666375607427	1665.72760716039	175.898917788843	2504.12303456605	1061.44038762509	138.118459717673	2230.39219478312	1886.67793513028	146.386288525113	2794.9261209492	1632.39598805417	127.314760770662	3622.72200256854	1517.53473242353	135.241674756429	2251.34899171035	781.764384787381	125	1637.24369462367	1399.97834699527	143.820033584971	2066.27474838418	1208.45926067793	138.391536740942	2401.0633565215	1852.82031227463	158.357212967365	2712.620484798	1409.48840311619	137.089332408549	2660.15895574047	1375.50008537497	138	1977.49069975282	882.188127189708	126.082403674188	2231.64685613698	1470.17780140038	126.411218591747	2753.02781663994	309.022732863467	125.881540282327	871.077229747869	2439.01355389008	134	4115.23587048098
357.75121327536	139.41742419649	794.817388984129	1666.74177388959	175.917596325812	2505.86988291972	1061.62643964119	138.113897378801	2231.19769860117	1887.3292260824	146.429003183101	2795.7957557802	1632.77530562464	127.33343930763	3623.27810967222	1517.85717264247	135.292448657554	2252.20527481056	781.988005053796	125	1637.80617096428	1399.54956199456	143.870895399474	2066.24080508235	1207.94158354912	138.399246485997	2399.95257658402	1851.48539257174	158.415842981819	2709.87338996195	1409.02731932606	137.090118156844	2658.43121555847	1375.95740579488	137.998672777103	1976.87278886752	882.008235702142	126.101082211157	2231.11049021036	1470.31278052527	126.445855974562	2753.22118505447	309.041708740109	125.8861026212	870.994503245568	2439.88554138567	134	4114.74116191822
357.80276089491	139.422615148347	794.882303072174	1667.55153356608	175.938843073884	2507.40723985993	1061.77574153164	138.101082211157	2231.82160181958	1887.80945669965	146.465081119641	2796.43732403098	1633.09995690461	127.328876968758	3623.21185077597	1518.21989928995	135.333977653745	2252.85823517083	782.15825561749	125	1638.04410080587	1399.18221563956	143.913736629031	2065.79459597039	1207.21861373626	138.388305149361	2398.13047847111	1849.98388940061	158.447336686431	2706.60184081911	1408.64270334471	137.077736266483	2656.42560959758	1376.6457274723	137.995349747749	1976.42880642057	881.741175507511	126.113897378801	2229.96527306744	1470.30225353608	126.477800111911	2752.58209329832	309.117950916041	125.898917788843	870.894372847422	2441.03713994668	134	4114.06037524909
357.841343850058	139.423042863408	794.805709435293	1668.10997965015	175.95927654881	2508.37648353329	1061.84265761405	138.082403674188	2231.99727954023	1888.03747055512	146.487963962247	2796.50585024138	1633.32648780117	127.301945603018	3622.57892293779	1518.53044684783	135.361347591176	2253.24049180517	782.296043890334	125	1638.01809143876	1398.80764242625	143.947526746202	2064.93122933239	1206.43196422609	138.358545752483	2395.93262165959	1848.3706840587	158.447336686431	2703.14167060992	1408.37876652225	137.052740452684	2654.47205589691	1377.61076345856	137.988250197392	1976.45153017752	881.459511839957	126.118459717673	2228.50030376913	1470.240963322	126.50579983323	2751.43201497928	309.272850759347	125.917596325812	870.91204188528	2442.61076470706	134	4113.25483397598
357.867833868843	139.41733072089	794.574011159457	1668.43254787579	175.976220778044	2508.57873210095	1061.81050396654	138.061156926116	2231.59268412404	1887.99611018547	146.494482483284	2795.84451079896	1633.40646182972	127.258785202002	3621.38660224334	1518.70594850965	135.371355357906	2253.26116874997	782.403111838634	125	1637.74689205217	1398.33765208687	143.971570525793	2063.63354055928	1205.70157548208	138.313783319004	2393.69165236537	1846.68154990432	158.415842981819	2699.77215136594	1408.24157117338	137.018678536968	2652.81375685508	1378.81984052968	137.976220778044	1977.07755197646	881.224287019684	126.113897378801	2227.01193084254	1470.18367110343	126.529037580585	2750.09951542193	309.515901790276	125.938843073884	871.168281899807	2444.68000077964	134	4112.38958516285
357.887504313149	139.403913893702	794.216446610509	1668.589314349	175.988250197392	2508.03353522875	1061.69018424298	138.04072345119	2230.62851846815	1887.71841324275	146.484988666306	2794.48201503962	1633.30795421885	127.207612840713	3619.61608351622	1518.69271716959	135.363102529134	2252.81748862403	782.467061581888	125	1637.21141699252	1397.6864271414	143.985595751598	2061.8643791318	1205.11036731334	138.26104286632	2391.67113566467	1844.93339869688	158.358540190262	2696.6495757223	1408.20775743583	136.981321463032	2651.55395162333	1380.17991433197	137.95927654881	1978.26157081944	881.078111914483	126.101082211157	2225.73473004482	1470.14508296414	126.548057957063	2748.84224949805	309.842676921182	125.95927654881	871.734131159425	2447.23238832928	134	4111.53078081396
357.904536455761	139.383218920054	793.797006273976	1668.67312268906	175.995349747749	2506.97783233781	1061.50385009315	138.023779221956	2229.2615773212	1887.25153922411	146.461755031374	2792.587454591	1633.0244732354	127.158656149942	3617.24995047577	1518.47638570503	135.338106715335	2251.82130676119	782.467845281726	125	1636.37033581616	1396.79119733764	143.990699495499	2059.57932849227	1204.69412488138	138.210717719244	2390.03643538874	1843.13117975241	158.285366262651	2693.80663530561	1408.23563374435	136.947259547316	2650.66787239574	1381.56566063948	137.938843073884	1979.8168003168	881.034799279235	126.082403674188	2224.79338234865	1470.10296139775	126.563099100392	2747.79060259408	310.232973277341	125.976220778044	872.607080534246	2450.16367219805	134	4110.73099454567
357.922153102463	139.354940047477	793.393282791707	1668.76714679827	175.998672777103	2505.7850546575	1061.2729487287	138.011749802608	2227.72369243388	1886.62883323709	146.429059893275	2790.37976175958	1632.57940969006	127.120465172637	3614.28855146576	1518.08231420899	135.29991573803	2250.21895614972	782.387275169506	125	1635.17775119019	1395.63134544728	143.985595751598	2056.74207645027	1204.44916713131	138.171033302703	2388.83884796135	1841.2872037893	158.208063273451	2691.17582847139	1408.28480704641	136.922263733517	2650.03451659232	1382.85548389506	137.916269102915	1981.47623723721	881.083844893839	126.061156926116	2224.18729548274	1470.01126453278	126.572130506123	2746.93790481334	310.654020985608	125.988250197392	873.706225985223	2453.28558254865	134	4110.02522242733
357.940598011842	139.322991102954	793.069766514706	1668.91131953804	176	2504.82986974751	1061.00724564596	138.004650252251	2226.2338724746	1885.84543873267	146.391101159794	2788.03559496464	1632.00843830753	127.097846957239	3610.75660038451	1517.55839723517	135.254663868556	2248.02260664233	782.211953444506	125	1633.59068554997	1394.2294167273	143.971570525793	2053.34806445594	1204.33440883858	138.149159204479	2388.02333492999	1839.42996384507	158.13740940187	2688.64719489566	1408.32177481253	136.909881843156	2649.4978683282	1383.94351283284	137.894267536593	1982.96779272706	881.197364965919	126.04072345119	2223.81233993547	1469.81789359399	126.574605996675	2746.16185280583	311.066925305234	125.995349747749	874.894864819916	2456.37128985986	134	4109.43387032324
357.956194387955	139.291437213398	792.852890134921	1669.07824869324	176	2504.33188533474	1060.6993009102	138.001327222897	2224.91739412374	1884.87445197226	146.35117900324	2785.65635184464	1631.32986278663	127.09091362322	3606.63363642431	1516.9508241196	135.209461254271	2245.29470335101	781.92453697614	125	1631.54456616127	1392.63322307769	143.946199523305	2049.41015975617	1204.27848842257	138.146362172959	2387.42548279803	1837.62041691426	158.080902728005	2686.12772680923	1408.32252601509	136.910667591451	2648.90908092669	1384.73926884847	137.874352818591	1984.05931991923	881.338583077118	126.023779221956	2223.5019299882	1469.46973172703	126.571259278185	2745.2615511984	311.437075412153	125.998672777103	876.016677849284	2459.18542893841	134	4108.97088226075
357.965686526245	139.267043059144	792.720135298954	1669.17433132168	176	2504.25882887428	1060.32752371211	138	2223.76384582469	1883.69988916407	146.312585678697	2783.3029112515	1630.50922394596	127.095480699693	3601.78438908099	1516.27244289607	135.172609965607	2242.12584034634	781.488196989162	125	1628.91646355296	1390.88120858401	143.90908637678	2044.93288189153	1204.17786464779	138.159532940102	2386.80108292816	1835.9441086153	158.041506499712	2683.5762413264	1408.26034659792	136.922246578062	2648.15581492642	1385.1424260046	137.857761060371	1984.57425872596	881.464615523995	126.011749802608	2223.07143175467	1468.89806679308	126.563335161717	2743.99450192714	311.735928554493	126	876.93464814143	2461.50058462932	134	4108.65080536124
357.963577029822	139.256646605844	792.599463349589	1669.04508134961	175.998672777103	2504.29391109815	1059.86076452134	137.998672777103	2222.62160493976	1882.3588370425	146.279049760816	2781.06655360435	1629.43654125578	127.105732463407	3595.88481661397	1515.49106033367	135.152339648107	2238.59108702815	780.831246735366	125	1625.4875318492	1388.97642433102	143.857818373969	2039.8776545573	1203.89373456312	138.182359002961	2385.8146666489	1834.4957917414	158.016400054859	2681.00347682682	1408.09255192278	136.940170296781	2647.14058058278	1385.01103334708	137.84537917001	1984.34371950891	881.52826328097	126.004650252251	2222.34757083452	1468.00418519377	126.554035432211	2742.08850748927	311.950043702571	126	877.562887084759	2463.11998164734	134	4108.49542803177
357.94646408094	139.265186779499	792.390042169307	1668.50374876398	175.994022524852	2503.89961715415	1059.27028293579	137.995349747749	2221.25302444913	1880.98173258647	146.255013639796	2779.18108193107	1627.92060152876	127.115224601697	3588.42517446177	1514.52567598182	135.155136679626	2234.72530440722	779.837796099594	125	1620.94672582289	1386.86107576625	143.790276887868	2034.1451976052	1203.25424495139	138.208168089906	2384.0620927711	1833.35837743572	158	2678.44066042431	1407.74876503262	136.95927654881	2645.74960075884	1384.14785695427	137.837760862727	1983.17116140218	881.476079399714	126.001327222897	2221.18652360194	1466.64224292324	126.545201574119	2739.25719813983	312.076825446616	126	877.876889485617	2463.86116594811	134	4108.52712084804
357.91242196193	139.292571706462	791.988509570553	1667.36472770703	175.982272722244	2502.46433898454	1058.53930266855	137.988250197392	2219.41375135911	1879.78036009014	146.243663055938	2778.02851364171	1625.72708884273	127.118459717673	3578.84245694174	1513.26682612417	135.184110328208	2230.51762067694	778.361830608508	125	1614.96144750393	1384.42966857226	143.703741718354	2027.60626737422	1202.08178193853	138.232706867713	2381.13658997609	1832.58692590236	157.983599945141	2675.90909206682	1407.14433207982	136.976220778044	2643.8467814951	1382.33183921735	137.835192651623	1980.8244385108	881.251702301311	126	2219.47752925983	1464.63699368749	126.538877056379	2735.22348525612	312.123002053807	126	877.903212617701	2463.56333569788	134	4108.75459513115
357.861192617309	139.335037677756	791.319986257746	1665.48602852954	175.958493500288	2499.46005774911	1057.6720338255	137.976220778044	2216.93038200616	1878.99806859214	146.248512670122	2778.05586856218	1622.64599256196	127.113897378801	3566.70872941658	1511.61125964777	135.237819970554	2225.93255871399	776.268983884445	125	1607.28954629316	1381.56505518107	143.59556469444	2020.16246274024	1200.22934788284	138.255158866772	2376.70758920681	1832.18727937595	157.958493500288	2673.39042173404	1406.19792703678	136.988250197392	2641.27826481116	1379.3719631659	137.837760862727	1977.0651029232	880.806322762637	126	2217.15662108218	1461.8213554407	126.5352032347	2729.77907725009	312.099734081829	126	877.700654966346	2462.09539058325	134	4109.16549796136
357.794113866973	139.384152836244	790.360449365682	1662.8056280333	175.917770049098	2494.60724061684	1056.69797570338	137.95927654881	2213.76942021258	1878.82870648691	146.267986452269	2779.63100614534	1618.57406682217	127.102409434054	3551.95635547897	1509.50217691264	135.308865867867	2220.9524659954	773.484996359212	125	1597.90915917354	1378.19735412086	143.464184740291	2011.82901598744	1197.63739806825	138.277115867616	2370.6462088449	1832.1187598116	157.917770049098	2670.84213854512	1404.872135219	136.995349747749	2637.94775605197	1375.19079763564	137.84537917001	1971.75026028433	880.11196131312	126	2214.21707332826	1458.09933260776	126.534835704582	2722.85486121562	312.020637422837	126	877.338064196218	2459.39142037727	134	4109.71232117359
357.713850688827	139.430335143599	789.147854437293	1659.36801335176	175.855285900085	2487.96264495772	1055.67146390902	137.938843073884	2210.06096872522	1879.33331265271	146.298443288156	2782.8627454098	1613.57778076363	127.087053926439	3535.05311108008	1506.95114482697	135.386969664469	2215.62900051734	770.044277834434	125	1587.12099723377	1374.34317870797	143.311525654686	2002.80442277414	1194.36804874026	138.300713904179	2363.0987064898	1832.29602952712	157.856613122982	2668.21905092492	1403.19623411869	136.998672777103	2633.87037676124	1369.89143023229	137.857761060371	1964.93583102123	879.181312163389	126	2210.73425100263	1453.51344618849	126.536743801246	2714.60287615798	311.901702610024	126	876.882743519967	2455.50942480177	134	4110.30918830809
357.622934365833	139.464278215891	787.772468690309	1655.32867235751	175.769559196543	2479.91979823393	1054.66138139354	137.917596325812	2206.06680287062	1880.3927091899	146.3316967379	2787.47286596362	1607.91869952716	127.072906728724	3517.0035119331	1504.04333752723	135.457893655905	2210.09024257291	766.111335032098	125	1575.55743290654	1370.12899801421	143.143115729789	1993.47289804477	1190.62708818396	138.326089713841	2354.55292821773	1832.60537153926	157.774209448794	2665.5401841604	1401.28515041236	137	2629.25998436257	1363.79515855805	137.874352818591	1956.98239292943	878.07686537413	126	2206.88958184087	1448.28672174036	126.540123606807	2705.46239562045	311.76264946873	126	876.401553945454	2450.67182958343	134	4110.86859914132
357.527021094279	139.482458626157	786.358384733056	1650.94769933392	175.660050212132	2471.13311571838	1053.74316869396	137.898917788843	2202.12157098933	1881.7181936929	146.361194636056	2792.77639661782	1602.03486368731	127.064502673146	3499.22018265093	1500.92831583912	135.508493612547	2204.5390576422	761.974220462666	125	1564.10732763063	1365.77700386201	142.969385519283	1984.36130845205	1186.74745867429	138.352152930503	2345.79945762701	1832.92658692389	157.673127237637	2662.92666281458	1399.33024920791	137	2624.53529251997	1357.42186511367	137.894267536593	1948.57293144177	876.912208356979	126	2202.98596105691	1442.82289963923	126.5436128525	2696.17234772638	311.627769703027	126	875.972942024433	2445.2831602217	134	4111.31612820942
357.433508208375	139.484182634069	785.03493552365	1646.55307478955	175.53080038463	2462.37451323358	1052.98208553242	137.8861026212	2198.53758167264	1882.91116755681	146.378813011071	2797.77420250422	1596.46675985096	127.064502673146	3483.27338550685	1497.7858090893	135.529740360619	2199.21812378648	758.000011374186	125	1553.76622252775	1361.55897674698	142.804481995533	1976.04421836834	1183.13953746499	138.376267468017	2337.81160253415	1833.15566073507	157.560557081733	2660.60531698113	1397.56887224586	137	2620.26762084042	1351.42109206391	137.916269102915	1940.64190117572	875.841993385347	126	2199.42626578824	1437.66481612458	126.547288352867	2687.70049092284	311.52704961139	126	875.69125419419	2439.91569158146	134	4111.61140568781
357.351642880302	139.472983643322	783.910016732097	1642.50634846437	175.388296887365	2454.39118284011	1052.42260103049	137.881540282327	2195.54111018577	1883.56476446566	146.381783499838	2801.36497243418	1591.75892266919	127.072906728724	3470.55472013214	1494.7882712556	135.516925192975	2194.34922323141	754.566639714763	125	1545.43283764098	1357.73012835957	142.663854495199	1969.01119353412	1180.21169930495	138.396540288827	2331.57394940613	1833.21447186403	157.446747616311	2658.88399110873	1396.23489549352	137	2617.08178007957	1346.45394457085	137.938843073884	1934.22381135428	875.035988744819	126	2196.65648310075	1433.40035390267	126.55239216634	2681.09135487095	311.490726438592	126	875.663826963087	2435.22765454717	134	4111.75063592638
357.293075138244	139.455767615543	783.054137813549	1639.15211914097	175.241936614291	2447.77933261649	1052.08327688267	137.887429844096	2193.22731685305	1883.37379570487	146.370295555091	2802.59927282828	1588.34407636656	127.087053926439	3461.99681210234	1492.06206293642	135.472437569062	2190.0870871793	751.984340479983	125	1539.73150181971	1354.46116306355	142.561173262601	1963.56054825103	1178.29138430725	138.412867419839	2327.86760111773	1833.06331155065	157.344600040119	2658.06657351769	1395.50936837148	137	2615.49573958481	1343.06812583248	137.95927654881	1930.23219051035	874.644348228476	126	2195.08999522778	1430.54739803784	126.561095427849	2677.27586464397	311.5462990087	126	875.995878073687	2431.85038452045	134	4111.76899301615
357.270642797948	139.437708610532	782.493626334788	1636.77652739135	175.102663425828	2442.92103898276	1051.95629066394	137.903568041094	2191.56250813602	1882.21751022085	146.348734442734	2800.92174710775	1586.46454188846	127.102409434054	3457.87684718787	1489.67195298122	135.403825980324	2186.47997303059	750.434428243284	125	1536.88357414614	1351.79971296794	142.505381579107	1959.72151389305	1177.55847982791	138.42741906114	2327.11059976307	1832.70089518743	157.267297050918	2658.37690458318	1395.48278164869	137	2615.80186298034	1341.59546365498	137.976220778044	1929.26638425827	874.768400771688	126.001327222897	2195.00472714145	1429.44882975631	126.577641196919	2676.86135232939	311.70974339696	126	876.763113404267	2430.27959148238	134.001327222897	4111.70797763569
357.292751229184	139.424085731964	782.212719424846	1635.55926481619	174.981147739745	2439.97194301445	1052.00724553899	137.92934612842	2190.41779725189	1880.18408364748	146.32485423823	2796.31719257133	1586.13090819147	127.113897378801	3457.78375821227	1487.62048711345	135.323287875148	2183.46796753711	749.934435025269	125	1536.67320114478	1349.66368709708	142.500016336485	1957.24863472882	1178.0061981214	138.445420393414	2329.2544199627	1832.15303942114	157.226944050817	2659.87399308281	1396.13211044053	137	2617.96757800232	1342.08858506026	137.988250197392	1931.46370789008	875.435484919913	126.004650252251	2196.48708519351	1430.19770797016	126.605141908392	2679.99989013059	311.983637217769	126	877.988902877231	2430.77037941569	134.004650252251	4111.62504920696
357.363125484024	139.417534827544	782.166891922969	1635.55604527806	174.885928897913	2438.89978503818	1052.18527119151	137.96262229584	2189.62648710939	1877.55446660955	146.308194225395	2789.32916192524	1587.14164516936	127.118459717673	3460.74803538615	1485.873522445	135.244469088175	2180.91325401626	750.344199447096	125	1538.51024287903	1347.87722447428	142.542054592718	1955.68207771619	1179.45317940922	138.470433362668	2333.80798329444	1831.46895533061	157.23026708017	2662.43276907377	1397.33733815327	137	2621.64976004598	1344.33503398961	137.995349747749	1936.48161506068	876.592845603041	126.011749802608	2199.39702099695	1432.61757673655	126.64442786477	2686.33082389631	312.352059475704	126	879.623764909235	2433.29579401653	134.011749802608	4111.5658274876
357.480539633367	139.41792692285	782.291183413996	1636.69023913769	174.821964570882	2439.52511464523	1052.43492408907	138	2189.02705453068	1874.73249973826	146.308971761321	2780.9191367562	1589.14551614765	127.113897378801	3465.50882916341	1484.38766637087	135.181033679949	2178.66458539903	751.403491123959	125	1541.57619314242	1346.22605299384	142.621786665658	1954.4680449058	1181.59467875844	138.50517933871	2339.95491326734	1830.72137931018	157.279046853526	2665.76406910196	1398.91867639074	137	2626.28043976971	1347.92916022598	137.998672777103	1943.59197436494	878.125499928067	126.023779221956	2203.40625684747	1436.31463031784	126.694194700201	2695.0703171595	312.786161491799	126	881.548263791448	2437.5696837738	134.023779221956	4111.56836240615
357.637159328727	139.425938883122	782.513368822871	1638.7746580222	174.789932520155	2441.57077989075	1052.70560458669	138.03737770416	2188.49421155813	1872.14364822573	146.333536731573	2772.23297036185	1591.72965565314	127.101082211157	3470.78641787121	1483.13461455566	135.14416992554	2176.59887043208	752.795471232855	125	1544.99022495604	1344.51830060684	142.727710762854	1953.07273346495	1184.07458310381	138.54870246267	2346.74344122183	1830.00115542961	157.368379262075	2669.50188322699	1400.68514940228	137	2631.21709824694	1352.38008970122	138	1951.87233252231	879.887924671524	126.04072345119	2208.07953012046	1440.77741875346	126.751225693213	2705.18383439996	313.249491355767	126	883.589664897009	2443.13519478758	134.04072345119	4111.65536323509
357.821164366906	139.438232929679	782.760091350814	1641.55421562341	174.786435546318	2444.69954101746	1052.96362263279	138.07065387158	2187.95267074396	1870.15719405893	146.385756768591	2764.34372629798	1594.50776181605	127.082403674188	3475.55039267996	1482.11545953711	135.140680679847	2174.66643344486	754.209481741749	125	1547.9764782706	1342.62775491315	142.846016819984	1951.09228940444	1186.56573513738	138.593975834879	2353.30261553808	1829.41869454554	157.487471067501	2673.32956394411	1402.48596826045	137	2635.92863618817	1357.23001201537	138	1960.45262242657	881.739564129837	126.061156926116	2212.98094170602	1445.49198376774	126.80933138852	2715.62792077685	313.706576476127	126	885.558599882531	2449.45841565512	134.061156926116	4111.83122187681
358.018704729413	139.454391341044	782.966301437743	1644.74998613088	174.805026169908	2448.55253539852	1053.19494393754	138.096431958906	2187.37348666533	1869.01211792416	146.464474894067	2758.04858932898	1597.18500374933	127.062484149013	3479.16138921036	1481.35309711004	135.174470797019	2172.89896273104	755.395894795515	125	1549.96929016816	1340.51281133065	142.965798198333	1948.31036259591	1188.8260363606	138.63107656355	2359.0041340464	1829.09374648843	157.62171400785	2677.07066582113	1404.23822703189	137	2640.11733150437	1362.13151807492	138	1968.69547832162	883.581945493717	126.082403674188	2217.77897399488	1450.05523915846	126.863795849117	2725.57439253884	314.131527232614	126	887.296121317228	2456.06921451892	134.082403674188	4112.08741910437
358.216306812854	139.471905812541	783.079993876372	1648.11524738726	174.839088085624	2452.77690391417	1053.41097424848	138.112570155904	2186.76530316845	1868.81977468908	146.565557105223	2753.79044603433	1599.57873995122	127.045373703441	3481.38766935522	1480.872487	135.244845051859	2171.37520581457	756.191969727665	125	1550.66180253248	1338.19604869342	143.079057927159	1944.68684367415	1190.71366765993	138.648549849532	2363.52419337603	1829.12824236869	157.755530911825	2680.72256888729	1405.92305962463	137	2643.74518932157	1366.87234449101	138	1976.28134187395	885.366818391621	126.101082211157	2222.30554090863	1454.22516949765	126.910413599677	2734.54650041463	314.514667528657	126	888.710401327459	2462.61426751332	134.101082211157	4112.41237141097
358.405770173347	139.489295784803	783.072404820447	1651.46725337928	174.882850349769	2457.08282028171	1053.64139979637	138.118459717673	2186.17659966932	1869.57258158413	146.683140032737	2751.68480228636	1601.6164892513	127.035529024564	3482.35563655014	1480.68197800734	135.349250292369	2170.19921035653	756.528248935874	125	1550.00435595859	1335.73685459459	143.183485885345	1940.33238887339	1192.18170050254	138.636800046923	2366.85559197752	1829.59211394059	157.87529165995	2684.44262586251	1407.571104268	137	2647.00832493823	1371.3711345868	138	1983.218429286	887.092877230281	126.113897378801	2226.5568268842	1457.93106645685	126.946199523305	2742.45300211852	314.857035325447	126	889.791837635084	2468.88277935887	134.1138973788	4112.79752872996
358.583108335027	139.503399517153	782.937681688219	1654.69588908506	174.932791129683	2461.25787860086	1053.92400921534	138.113897378801	2185.66988611501	1871.17905073759	146.811863862404	2751.57667995706	1603.31432277321	127.035529024564	3482.44290923718	1480.76357308826	135.483603863772	2169.46112381049	756.422753329587	125	1548.17282685384	1333.21177712615	143.279482263103	1935.46872193545	1193.25007245087	138.592224509632	2369.21436706455	1830.49953850523	157.971837724679	2688.4629401527	1409.22978942768	137	2650.21641680551	1375.6302320732	138	1989.72283010269	888.785901497515	126.118459717673	2230.64949209479	1461.23610686423	126.971570525793	2749.52229427505	315.171001878302	126	890.607696945231	2474.78539524589	134.11978694057	4113.24151485433
358.750684218612	139.510366909703	782.695298371388	1657.75677434043	174.989033245914	2465.18161614563	1054.29269900779	138.101082211157	2185.31663437936	1873.49067756787	146.946569974393	2753.15326208252	1604.74135183565	127.045373703441	3482.13920731567	1481.06501359847	135.641459809738	2169.20505562609	755.960761646193	125	1545.51021367637	1330.69313153732	143.369766498344	1930.37411358506	1193.96638120044	138.517723359125	2370.92519553054	1831.79213976998	158.040880019022	2692.96932435468	1410.93021542324	137	2653.65816410935	1379.68081268496	138	1996.08215102925	890.468811945472	126.113897378801	2234.74348129149	1464.26663369765	126.986922974495	2756.16351522701	315.469180608823	126	891.275113283653	2480.28891011089	134.118547631051	4113.74266426143
358.914964597694	139.505429382142	782.388082184272	1660.65338638352	175.053800476695	2468.84192071991	1054.76897575824	138.082403674188	2185.1878612738	1876.31529136949	147.082403674188	2756.00730438526	1605.98931959715	127.062484149013	3481.97796707409	1481.50441949144	135.816514114655	2169.42728762538	755.271577645683	125	1542.47899741598	1328.24099372554	143.456820424783	1925.35875326856	1194.38220561418	138.423042863408	2372.31461435113	1833.33922984577	158.085467904594	2698.001161313	1412.67048390968	137	2657.49845327036	1383.54898310983	138	2002.52018336232	892.141105545778	126.101082211157	2238.96270705018	1467.14978230265	126.995349747749	2762.80496134999	315.75955515696	126	891.921256290035	2485.36017939804	134.112832013765	4114.29741094186
359.083631642852	139.485514594567	782.074551630247	1663.40464688785	175.130309851513	2472.30751669321	1055.35076182612	138.061156926116	2185.33989826081	1879.41301092472	147.21566916288	2759.6804108013	1607.14846336211	127.082403674188	3482.43640965969	1481.98160607181	136	2170.07593614166	754.506972056107	125	1539.58628910531	1325.90609656166	143.54185235232	1920.725701205	1194.53060754492	138.322222510112	2373.62390675937	1834.94589419291	158.113111630505	2703.39635458785	1414.40663099763	137	2661.72132056006	1387.2262821571	138	2009.11354175514	893.766774769173	126.082403674188	2243.33621817951	1469.96097959583	126.998672777103	2769.76212972164	316.040775202567	126	892.645966906978	2489.92737507821	134.106182896144	4114.88895857546
359.26184103247	139.449728740512	781.815399353487	1666.01878694099	175.221140298956	2475.68473122728	1056.01238687974	138.04072345119	2185.79395724806	1882.50680268341	147.342756967586	2763.69172743256	1608.28991111497	127.101082211157	3483.8585665379	1482.39609076249	136.183485885345	2171.05921459364	753.812417478189	125	1537.30259716984	1323.73026529908	143.624256026509	1916.73248935254	1194.42041818427	138.22911358056	2374.97225162433	1836.37890185741	158.134876927986	2708.81245128331	1416.06026727211	137	2666.14633342266	1390.66486743148	138	2015.77797976831	895.281048460833	126.061156926116	2247.78493842648	1472.70897419758	127	2777.17625013556	316.304133043264	126	893.502870563627	2493.88130957981	134.101880377306	4115.49513984345
359.451304392962	139.401112055009	781.66793831117	1668.47325345954	175.324218316569	2479.08266425072	1056.70549590126	138.023779221956	2186.53370932851	1885.29087313832	147.459098906892	2767.5611352646	1609.4572041416	127.113897378801	3486.39584735769	1482.66004746681	136.357212967365	2172.25622740608	753.30758367373	125	1535.98292532651	1321.7403987152	143.702790459141	1913.54973093894	1194.03558278772	138.155136679626	2376.34596643028	1837.39997165936	158.16116590615	2713.78558677819	1417.53123400039	137	2670.46829010487	1393.78474180707	138	2022.29303520403	896.603903440025	126.04072345119	2252.13469614075	1475.34078771286	127	2785.00361956465	316.535341872082	126	894.490698574551	2497.10022359297	134.101880377306	4116.08089339698
359.649362471362	139.344921911352	781.674062566895	1670.71464524602	175.434792666016	2482.55753971884	1057.36859130668	138.011749802608	2187.49152860456	1887.46478822646	147.560090076185	2770.82469571086	1610.66492318609	127.11978694057	3490.00615502867	1482.70994790981	136.511745883977	2173.54123933897	753.069027289782	125	1535.82839173764	1319.9439408778	143.775007614943	1911.24785322811	1193.35452659799	138.107336395755	2377.64359570839	1837.81382205626	158.199379601132	2717.84423068029	1418.7258761413	137	2674.34682546074	1396.50336935778	138	2028.377072073	897.66480612199	126.023779221956	2256.15535772766	1477.77600984425	126.998672777103	2793.05498762601	316.72094072862	126	895.556834192044	2499.50170492701	134.106182896144	4116.61247073901
359.851789147445	139.289233200342	781.854998818971	1672.65654044002	175.540175358184	2486.08486055219	1057.93585812283	138.004650252251	2188.55009949485	1888.75679650501	147.641257569341	2773.04988035219	1611.90090948997	127.118547631051	3494.44819638141	1482.51259198981	136.637672682126	2174.79115910701	753.124008636608	125	1536.85783903804	1318.32269228593	143.837384899043	1909.78196784722	1192.36506819353	138.088207426049	2378.72481993664	1837.50215477151	158.249193809478	2720.6111243211	1419.57680483025	137	2677.47721275981	1398.75275218118	138	2033.75531557863	898.425434949456	126.011749802608	2259.6088259139	1479.94642453239	126.994022524852	2801.06457768757	316.852119438564	126	896.61424226702	2501.08533753818	134.112832013765	4117.04500046531
