Light	Light	Light	Light	Light	Light	Light	Light	Light	Light	Light	Light	Light	Light	Light	Light	Light	Light	Light	Light	Light	Light	Light	Light	Light	Light	Light	Light	Light	Light	Light	Light	Light	Light	Light	Light	Light	Light	Light	Light	Light	Light	Light	Light	Light	Light	Light	Light
Optode1-730nm	Optode1-Ambient	Optode1-850nm	Optode2-730nm	Optode2-Ambient	Optode2-850nm	Optode3-730nm	Optode3-Ambient	Optode3-850nm	Optode4-730nm	Optode4-Ambient	Optode4-850nm	Optode5-730nm	Optode5-Ambient	Optode5-850nm	Optode6-730nm	Optode6-Ambient	Optode6-850nm	Optode7-730nm	Optode7-Ambient	Optode7-850nm	Optode8-730nm	Optode8-Ambient	Optode8-850nm	Optode9-730nm	Optode9-Ambient	Optode9-850nm	Optode10-730nm	Optode10-Ambient	Optode10-850nm	Optode11-730nm	Optode11-Ambient	Optode11-850nm	Optode12-730nm	Optode12-Ambient	Optode12-850nm	Optode13-730nm	Optode13-Ambient	Optode13-850nm	Optode14-730nm	Optode14-Ambient	Optode14-850nm	Optode15-730nm	Optode15-Ambient	Optode15-850nm	Optode16-730nm	Optode16-Ambient	Optode16-850nm
535.149463606399	142.179704557167	909.946518415388	891.3088932943	274.720001887261	1201.57003628912	595.318480422796	154	902.29676331487	1249.57070323449	168.758063385709	1624.67208741056	1173.29408424088	143.115224601697	2137.47958444474	1082.36347940259	157.560557081733	1603.34100882696	468.498093187836	138.27746373897	719.550116642458	1206.45321630437	184.233684319371	1721.76909760011	628.021739808171	151.899446845591	897.473972368826	989.822384488067	199.194904923261	1289.2968871507	1161.73078153004	199.895520290437	1894.64390341953	1282.61196934045	152.238596429482	1650.991989971	990.338899976655	188.695955200381	1977.9874302794	1259.46378307876	140.942876493951	2341.26145863262	849.718496036248	248.345000572571	1648.90964932198	1091.48451059735	143.868463256822	1868.65854309784
535.678413411549	142.213940417367	910.172529369852	891.390520641216	274.412497234789	1200.68451287941	595.778123504064	154	902.254932254782	1250.2365104959	168.684877040245	1623.96567846143	1173.05531111123	143.101082211157	2136.87429757977	1082.17198596957	157.439442918267	1602.83627973957	468.584888315326	138.224209336535	719.749479088136	1206.36774756582	184.179450565393	1721.2604201382	628.207542716351	151.935497326854	897.522387838597	989.882966030015	199.175583361664	1289.25948108461	1161.90606670422	199.839606842549	1894.74472951906	1282.67617743883	152.202278528136	1650.71285535927	990.643068057031	188.595635673561	1979.02697972141	1258.60183282506	140.90331404932	2339.24765875599	849.646548917048	248.038708815976	1649.31462236808	1091.37932429736	143.845923344385	1867.39967117921
536.200702875687	142.243409064164	910.536702242766	891.423426048034	274.071592712939	1199.87225057325	596.256270708193	153.998672777103	902.40167269529	1250.90774016458	168.603805396128	1623.51792535116	1172.89046210467	143.082403674188	2136.57231099124	1082.11892610821	157.322222510112	1602.62850977508	468.733626186802	138.167339822261	720.182184975404	1206.32224731253	184.10258315734	1720.82187424933	628.544317471189	151.964470975436	897.881301451465	989.998271113033	199.14330660853	1289.27156505353	1162.21511738263	199.791953882004	1895.10712944202	1282.86213056516	152.16356636017	1650.58964397451	991.092124314041	188.499488068995	1980.61101445597	1258.13467854042	140.851766429769	2338.41925849842	849.689509126125	247.75598549952	1650.23041038978	1091.32699566711	143.816687837942	1866.56813198193
536.699172523849	142.267452843755	911.040757322202	891.378772831154	273.695325244922	1199.1308715307	596.734172491666	153.995349747749	902.754440343485	1251.53573999389	168.515271291671	1623.34520894723	1172.77461683688	143.061156926116	2136.61220355373	1082.16257965635	157.212713525701	1602.73900995396	468.929927239791	138.113630179914	720.846778120023	1206.27855490054	183.99884650039	1720.50635354921	629.023144199894	151.983599945141	898.508694896457	990.168262284986	199.090304297985	1289.30979250099	1162.65570502775	199.745248218066	1895.65108087341	1283.1828341814	152.123127125378	1650.61178687623	991.677411925736	188.405936251743	1982.6468948756	1258.07190723092	140.792387159287	2338.68164898618	849.815978109614	247.466577328224	1651.53964987777	1091.33043597957	143.774209448794	1866.09439842968
537.166527200431	142.285799539934	911.680681890011	891.247289739237	273.287536547442	1198.4654876418	597.19897406414	153.988250197392	903.311166476152	1252.09488572543	168.42155325808	1623.44991574536	1172.69366600259	143.04072345119	2137.02410726471	1082.28205107056	157.113630179914	1603.21051373853	469.161643211521	138.069152925397	721.730158444794	1206.23153483513	183.870112350952	1720.4157420446	629.630233694028	151.992695301956	899.36667489781	990.413877527224	199.015000174154	1289.41304727909	1163.22681280951	199.695172151859	1896.34681418713	1283.66267208913	152.084936148072	1650.82699131572	992.400732036077	188.314581485154	1985.04391515371	1258.41636644116	140.730792218287	2339.90389830324	850.010120737011	247.151893726388	1653.12434965732	1091.40684258639	143.713052522677	1865.91165548753
537.604777285564	142.298181430295	912.440351532686	891.035408760167	272.854756843338	1197.87844822151	597.641900731911	153.974893555147	904.043545896066	1252.58026194866	168.326610904502	1623.80802240766	1172.63979170906	143.023779221956	2137.78054671533	1082.46533912933	157.023779221956	1604.05710569227	469.421119714759	138.036856247461	722.800519034113	1206.18818697694	183.719902633027	1720.62562186479	630.346276630274	151.994022524852	900.417756789206	990.754541240903	198.918461350334	1289.64144276876	1163.91882708379	199.637738099024	1897.18682792129	1284.31344158362	152.052473253798	1651.29600671476	993.263360531573	188.226741810419	1987.7128225635	1259.16106762772	140.672947952129	2341.93276897215	850.264744006234	246.801836867932	1654.86741727291	1091.58119998832	143.632403786447	1865.96212221591
538.021401889594	142.304044799619	913.289642950743	890.752229552484	272.402922997719	1197.35921622751	598.057557187312	153.954626296559	904.900439435677	1253.00085032151	168.233841360776	1624.36356423218	1172.60705971602	143.011749802608	2138.77759249157	1082.70323932762	156.938843073884	1605.23036246633	469.702616735855	138.016400054859	724.007448532339	1206.15002795076	183.553252383689	1721.11973487402	631.141885930835	151.986922974495	901.621029631839	991.183697665641	198.80376099821	1290.03304586534	1164.69801667073	199.569936792889	1898.15468227476	1285.11246298594	152.02710225131	1652.04363820756	994.254131575154	188.142256095084	1990.55285220108	1260.27554557833	140.624422104905	2344.58746514044	850.567891939269	246.411261636399	1656.64157924517	1091.87014962448	143.53545063688	1866.18573250364
538.423640689044	142.302483949133	914.182173780076	890.400176528432	271.932934505568	1196.8721338418	598.443483845282	153.925766048379	905.812914375851	1253.36618177434	168.145579124437	1625.02545028935	1172.58873461262	143.004650252251	2139.83884301208	1082.98018451719	156.851766429769	1606.60915616492	470.002125389046	138.005977475148	725.282472676672	1206.10387799501	183.373613022224	1721.77639159546	631.977093413246	151.970243302896	902.923853477123	991.656794100575	198.670472791843	1290.56318265132	1165.50172817887	199.48663673935	1899.19498077487	1285.99244401086	152.007099550357	1653.01995067341	995.334130006343	188.058502480322	1993.4436578182	1261.6886168393	140.587676488498	2347.65237725599	850.89116080697	245.974691314749	1658.30639793616	1092.2640950154	143.429020338555	1866.50864629683
538.815167885211	142.292448657554	915.060988127145	889.966659030689	271.438623707743	1196.357823328	598.797969664203	153.887839628708	906.708586717464	1253.67970799476	168.061156926116	1625.68226857087	1172.57337705655	143	2140.73829489363	1083.26842954037	156.755530911825	1608.00748118317	470.313795736858	138.001327222897	726.544543856597	1206.01965602284	183.183485885345	1722.37897123011	632.803337814115	151.941549271054	904.255087127219	992.097178653055	198.517723359125	1291.13719376199	1166.24758481194	199.382322111992	1900.20565784871	1286.85043894886	151.986922974495	1654.09774578232	996.439579704557	187.970243302896	1996.25556370458	1263.29098414031	140.560001832541	2350.89456871385	851.189321133467	245.48690663801	1659.72752183027	1092.72328922819	143.322222510112	1866.84580269868
539.189418557409	142.273168461042	915.867650752134	889.421450379741	270.903442969523	1195.74178891247	599.116306680998	153.840467059898	907.522190494666	1253.93005573397	167.974893555147	1626.22059069374	1172.55024955227	142.994022524852	2141.25979172204	1083.53400050302	156.643912015134	1609.22220244685	470.631355576866	137.998672777103	727.711864450214	1205.86085689918	182.982272722244	1722.68406355479	633.568057962336	151.897336574172	905.534701260389	992.410982567754	198.340812912506	1291.61443548016	1166.84330692912	199.251221774582	1901.05699918738	1287.57014315688	151.959820723185	1655.10128395589	997.485218233425	187.867315319433	1998.86006459953	1264.93824853064	140.534573846721	2354.07044559595	851.406860179012	244.942138341174	1660.79581443237	1093.17821449343	143.223136105412	1867.1013537748
539.532616668365	142.244648373683	916.555076859827	888.722700595239	270.303554839182	1194.95299691218	599.391233208484	153.783439195371	908.206974504846	1254.08918424415	167.880392344938	1626.54839732431	1172.51148791504	142.982272722244	2141.2515474511	1083.74376474302	156.513161020252	1610.08337757307	470.946199523305	137.995349747749	728.716958753123	1205.59981923595	182.769030139796	1722.4939706782	634.223562738672	151.83536637491	906.686606130267	992.516894064292	198.136001910486	1291.85675020889	1167.2154736291	199.08898737491	1901.63876593642	1288.05448329733	151.917770049098	1655.86799458447	998.38210015336	187.739802499439	2001.16172607081	1266.47578617991	140.502106352788	2356.97229194709	851.488337125547	244.337368562558	1661.45397972888	1093.54609655326	143.138736624767	1867.19652389794
539.825179569685	142.209378078494	917.090575903185	887.825209817377	269.611220797087	1193.93865316616	599.608089708309	153.716906657237	908.736666958627	1254.11541550351	167.769559196543	1626.61010340967	1172.45649752618	142.958493500288	2140.66581524116	1083.87396875071	156.361775306237	1610.49972026182	471.249301325707	137.988250197392	729.514423104726	1205.2246807484	182.541502581081	1721.71396045043	634.735760906479	151.755530911825	907.654331762077	992.369201273912	197.900042771343	1291.77221926179	1167.32172971691	198.893070689083	1901.88904230319	1288.25144786067	151.856613122982	1656.29690143664	999.060447248458	187.576493038333	2003.1210891282	1267.7730763201	140.451553661399	2359.46886775542	851.393568495255	243.671597774343	1661.7137548296	1093.75363420047	143.069152925397	1867.09024671026
540.045859787396	142.171539641774	917.46054854243	886.692336561934	268.797743457561	1192.6746329382	599.74907448683	153.641633533025	909.103404481896	1253.96799072423	167.634943767279	1626.39335853411	1172.39161510955	142.917770049098	2139.57493693833	1083.91596706514	156.190323577841	1610.48137275823	471.5336000574	137.974893555147	730.095047208266	1204.7387721414	182.296056041249	1720.37480190618	635.089959563623	151.658984847096	908.415601164028	991.969425180908	197.630293515028	1291.34667851957	1167.164399011	198.663290065709	1901.82407183348	1288.16824628993	151.772882225897	1656.38144350216	999.481763532276	187.369686229856	2004.76637592195	1268.74377114639	140.375119530629	2361.52925781935	851.102949731947	242.94671227328	1661.65476162582	1093.75435231933	143.011749802608	1866.79554805496
540.180213358799	142.136204150883	917.67032680321	885.308359348862	267.839449098009	1191.16993450304	599.799819133057	153.55790263594	909.314059532836	1253.61963411143	167.472349655684	1625.92571593187	1172.33277947959	142.856613122982	2138.14115567079	1083.87836788343	155.999624036316	1610.11968665379	471.795456196866	137.953299073663	730.482515747384	1204.16028729372	182.029274839966	1718.60395517235	635.297763238235	151.550017267713	908.988155555254	991.366652454679	197.327461832483	1290.64585693223	1166.78860037974	198.400648177947	1901.53282287044	1287.86698305172	151.668476985386	1656.20682504715	999.648149406181	187.113695138403	2006.19805593208	1269.36734707155	140.268059844325	2363.24396756306	850.622371792429	242.166354533341	1661.41140446741	1093.54278572056	142.95927654881	1866.39044939162
540.224448773358	142.108715370028	917.734726408161	883.682775448141	266.721588168535	1189.45513352917	599.751472636984	153.467613593525	909.383664639231	1253.06696520143	167.278328763493	1625.25932011195	1172.29547938898	142.774209448794	2136.57274186879	1083.77868147173	155.790276887868	1609.55455122703	472.035252315114	137.921115796128	730.724666953892	1203.50597590612	181.73780363407	1716.57894610099	635.389750982008	151.433582677428	909.422709944376	990.637467801378	196.992962500842	1289.7893725681	1166.26477814375	198.107136855131	1901.1495912484	1287.4417050945	151.546152833331	1655.91549135562	999.598846562247	186.809129148123	2007.55012381733	1269.68675432396	140.13046564435	2364.77589309234	849.977406830113	241.335379611733	1661.12978002462	1093.15396583219	142.903314049319	1865.98300204142
540.187942159193	142.093196704988	917.676732177426	881.847773824155	265.439826648328	1187.57140215489	599.608430586089	153.371098528415	909.33151349388	1252.336936485	167.053598236297	1624.45456085492	1172.29386774217	142.67180001474	2135.06806128951	1083.63905790861	155.56060883311	1608.92334677064	472.257457979105	137.8760898261	730.884639157447	1202.79019067188	181.417592407181	1714.46816297522	635.412669393822	151.314581485154	909.78731901432	989.870603427011	196.629228149993	1288.91338285326	1165.67489144414	197.784818169645	1900.8139437989	1286.99599582739	151.41101344406	1655.65954138314	999.399212505083	186.457945407282	2008.95893962191	1269.79347259865	139.965872667385	2366.31737818363	849.207046560131	240.457945407282	1660.93374424259	1092.65300552086	142.836693597807	1865.68305940148
540.091497131118	142.089586400323	917.526672379237	879.851901968391	264.001156478761	1185.56048876608	599.387558734588	153.269207781713	909.185471085193	1251.48041266191	166.798960560186	1623.57465927782	1172.33768928583	142.553252383689	2133.77990349582	1083.47938780706	155.308350018232	1608.32665445906	472.469655876367	137.816687837942	731.026516892319	1202.02545945365	181.066413403941	1712.39858392494	635.418787848327	151.197768161837	910.148964389899	989.142476202604	196.239730701349	1288.13049619753	1165.09140734053	197.434966389303	1900.62718914552	1286.61838070135	151.26709481052	1655.55109371117	999.126603179123	186.066413403941	2010.5284615127	1269.80578387557	139.779216658182	2368.02926579009	848.355960213521	239.54016294033	1660.89661926089	1092.12038992949	142.755530911825	1865.56557280813
539.963856043137	142.095480699693	917.317880739781	877.747848399004	262.420541885785	1183.45217530873	599.115024261184	153.162239137273	908.976082272317	1250.5631626662	166.516396136228	1622.66824798094	1172.43064327745	142.423042863408	2132.79384445771	1083.31177413386	155.030881679603	1607.8114258187	472.681654342123	137.742715744182	731.204325184103	1201.22781247074	180.684265015236	1710.44942739694	635.456522785833	151.085749421218	910.560302724649	988.507576322764	195.826868843732	1287.51247355246	1164.56601095245	197.058248488548	1900.63662453985	1286.36613284951	151.118476873128	1655.6453911698	998.850984491873	185.642584792237	2012.30609400729	1269.83893744622	139.577902833583	2370.00076920167	847.465488066536	238.588598174402	1661.02619361777	1091.63007600662	142.660312069993	1865.64647531582
539.839450274717	142.105732463407	917.087630599506	875.585879826317	260.719218535492	1181.26369227746	598.824149577392	153.050220396654	908.738113108251	1249.65958436249	166.20900211481	1621.77160527425	1172.57371853068	142.285366262651	2132.13908853021	1083.14292958865	154.725774214722	1607.38037764704	472.903829898955	137.654422508224	731.458891599892	1200.42391359283	180.272276819292	1708.66989905053	635.564843155904	150.978753251928	911.054496915419	987.998241277246	195.393286166304	1287.09038763595	1164.12958737326	196.655399959881	1900.84038056849	1286.26700052611	150.965676226423	1655.94363681541	998.629986953794	185.196301052989	2014.29209730713	1269.98642948286	139.367863412439	2372.24595524806	846.571327128819	237.611970311521	1661.28462087479	1091.23861276685	142.554667519964	1865.8888594153
539.751248648103	142.115224601697	916.878692239315	873.406822331271	258.923100995976	1179.00551490603	598.547689152258	152.933379548487	908.508992609975	1248.83499776248	165.880392344938	1620.91248690735	1172.77137197793	142.143560600305	2131.8149656029	1082.97922615535	154.39326901085	1607.01897735653	473.147614926803	137.553252383689	731.821405803323	1199.65906796471	179.834039152013	1707.11223674128	635.769504578625	150.87381134399	911.648261001433	987.624030942759	194.940222048158	1286.86747765323	1163.79382297042	196.226379621326	1901.20789981649	1286.32304767377	150.808004165623	1656.41398457145	998.500029735968	184.737869050968	2016.45230054204	1270.30924888973	139.155315965134	2374.72203742035	845.702020810103	236.620386784953	1661.61084676155	1090.97817948118	142.445332480036	1866.22014180949
539.726577380417	142.118459717673	916.738611395912	871.240794476337	257.057898717309	1176.69198552035	598.312403555472	152.812654417874	908.329973837103	1248.14209587055	165.53545063688	1620.12049010898	1173.03320785694	142	2131.82179016027	1082.83303278943	154.036340397825	1606.72786654365	473.424904942487	137.440420369924	732.318361823216	1198.99966413193	179.374613191557	1705.86052437943	636.080318163909	150.767822189035	912.344524062096	987.381733791926	194.468316235617	1286.83730066112	1163.55547394311	195.772882225897	1901.70294945386	1286.51590399154	150.643367840759	1657.01787282815	998.484088868462	184.277203780994	2018.75032693397	1270.83675005872	138.946811548314	2377.37167953699	844.883536751169	235.626381415555	1661.95979029973	1090.85913500704	142.339687930007	1866.56700560942
539.784928993071	142.1138973788	916.727215672025	869.112583555387	255.151275082961	1174.36144597244	598.137491708185	152.690068767097	908.248860024082	1247.61752124651	165.181031780064	1619.44864272225	1173.37501734209	141.856439399695	2132.17792332504	1082.72523557555	153.660312069993	1606.54311970847	473.747394513543	137.316859967263	732.977114370595	1198.52394170679	178.898541825159	1705.03536929172	636.496780164312	150.657076954018	913.150999613545	987.270823120998	193.977693227917	1287.00745338689	1163.41599190127	195.297383264146	1902.32110490147	1286.83178998734	150.469731371892	1657.74302383858	998.597220429083	183.822827916717	2021.1716139941	1271.57479694713	138.748519496042	2380.16140978728	844.143042950494	234.641995722118	1662.32940800601	1090.8774005271	142.244469088175	1866.88723127618
539.93325630494	142.101082211157	916.909233255282	867.04206407357	253.230969860204	1172.07863565283	598.029584873701	152.567744545469	908.318181323668	1247.27480821391	164.824945695083	1618.97463723773	1173.81418039214	141.714633737349	2132.93381563052	1082.68519776352	153.273858033964	1606.54523019723	474.125317665285	137.183485885345	733.827235984842	1198.30803617876	178.41101344406	1704.78438001993	637.010682041045	150.540100889131	914.08225581352	987.289365300921	193.469643458514	1287.40187564126	1163.37781406368	194.805199893195	1903.09529650686	1287.25752196301	150.286676330094	1658.60922869076	998.850245631427	183.380411381197	2023.74249693088	1272.51579667572	138.564680315064	2383.11309403023	843.510082433876	233.678310494978	1662.77459207384	1091.02415199895	142.163306402193	1867.19058857346
540.167480011459	142.082403674188	917.345721087442	865.048951386955	251.326276836611	1169.93136435891	597.984932967473	152.449982732287	908.583391975339	1247.11065002489	164.476299165728	1618.79055859006	1174.36128075277	141.576957136592	2134.15917684923	1082.7420992188	152.886102621199	1606.84217841091	474.565566615788	137.041680222999	734.900575896943	1198.4039714072	177.91603304159	1705.24628961141	637.608773647148	150.418751419387	915.162471095531	987.440209153252	192.947526746202	1288.05679283282	1163.44925566598	194.304158905443	1904.08970723593	1287.78594168282	150.096546064729	1659.66033262011	999.256102359608	182.951909799566	2026.51374798204	1273.65155871804	138.399779491087	2386.28435243396	843.017231875607	232.742796012669	1663.38742688578	1091.29482049378	142.09668595068	1867.52959102572
540.47459455408	142.061156926116	918.078746115293	863.154263696355	249.464555162555	1168.00801652699	597.992411388804	152.339687930007	909.07284186063	1247.10940034636	164.143386877018	1618.97774234233	1175.0160739196	141.445420393414	2135.90767606272	1082.91674303369	152.506600037206	1607.52979094182	475.068563855277	136.893817103856	736.216292848427	1198.8249675552	177.416990919207	1706.4976339808	638.277934692861	150.297209540859	916.421466482415	987.725201465957	192.418318142104	1289.00465542156	1163.6447553741	193.805026169908	1905.38287268908	1288.41638484616	149.904781158168	1660.9472312544	999.828243969393	182.536250840857	2029.54773563971	1274.97600642704	138.254764199788	2389.75424149587	842.693460379064	231.83758713944	1664.27306288759	1091.69055785807	142.04072345119	1867.98549616839
540.835923193721	142.04072345119	919.114929728021	861.377554794715	247.671151548353	1166.37554882762	598.036786585582	152.239818835924	909.784254986456	1247.24574690431	163.830394113483	1619.5782582689	1175.75802038985	141.322222510112	2138.1790379526	1083.2048292681	152.143386877018	1608.64900644201	475.626897265191	136.743607385931	737.772492948196	1199.52591920584	176.917596325812	1708.50511719007	639.001079682774	150.183312162058	917.881524748281	988.131621716862	191.89075287345	1290.25230417386	1163.96775724417	193.318710280705	1907.03680202409	1289.13346419304	149.719301145054	1662.4960492058	1000.56918937905	182.13083890826	2032.88817333173	1276.47640435856	138.126986822159	2393.57568932646	842.555511620624	230.96043004842	1665.51129673085	1092.2135166914	141.988250197392	1868.6355279665
541.232185411014	142.023779221956	920.417491638778	859.737587245237	245.964767940002	1165.05730360295	598.10572969406	152.151556599585	910.679693324933	1247.49579400593	163.538783314741	1620.56978207749	1176.54883340554	141.208063273451	2140.88903829046	1083.57568561341	151.802747687799	1610.15092555108	476.224463328309	136.596086106298	739.534081411285	1200.4121420937	176.422097166417	1711.1019696552	639.757684514736	150.08398488886	919.544371964893	988.623709324345	191.375216954571	1291.76270380045	1164.40558275299	192.855628026434	1909.06761229799	1289.90218623578	149.547995905864	1664.28565183789	1001.46668449994	181.731577966583	2036.53192800345	1278.12600606986	138.011749802608	2397.73551247646	842.601484259103	230.106108427092	1667.12462851136	1092.85997622847	141.930847074603	1869.51995033548
541.643630094529	142.011749802608	921.910851977259	858.244168089162	244.356914272217	1164.02795692412	598.188939865967	152.072906728724	911.693397630997	1247.83011505533	163.265715836247	1621.86720883719	1177.33869578546	141.101880377306	2143.8652769074	1083.97471403243	151.488254116023	1611.89031638834	476.83871212194	136.457170196022	741.430350804373	1201.35452941828	175.93399638067	1714.00812849723	640.520934716391	150.004383053364	921.380091694881	989.144758570878	190.879951422765	1293.44634594293	1164.925652244	192.421917880908	1911.42891776683	1290.66516436846	149.396811436055	1666.23342421062	1002.4847299569	181.335020522302	2040.40643848278	1279.87220455488	137.902769874945	2402.11759747749	842.805228903827	229.268347564365	1669.05393151266	1093.60969998324	141.861263375233	1870.61379212056
542.054065637754	142.004650252251	923.494367811225	856.897759272256	242.850969815435	1163.22000677506	598.27985618896	152	912.743831519363	1248.21798406496	163.005977475148	1623.33406242921	1178.07220740802	141	2146.86593662428	1084.32701094134	151.201039439814	1613.64254401926	477.441359211283	136.332850237511	743.35972722396	1202.21297013222	175.458497418919	1716.87219470188	641.258051856399	149.946042955473	923.32528737757	989.618989845748	190.4101680783	1295.17199949468	1165.47467738891	192.019066918506	1914.01479153868	1291.34468095427	149.269575533028	1668.20637298181	1003.56784097715	180.940170296781	2044.37703788183	1281.63597718923	137.793263949446	2406.51113280545	843.1183120433	228.44209736406	1671.16640404955	1094.42576811592	141.775536671691	1871.82588985299
542.449199821707	142.001327222897	925.059487006684	855.688272738477	241.443020601781	1162.54291184335	598.372822466754	151.927093271276	913.750154354465	1248.62439401258	162.752011441509	1624.80879994373	1178.69797605145	140.898119622694	2149.6299658231	1084.55225659987	150.941751511452	1615.15156776277	478.00408582276	136.227117774103	745.205497349777	1202.86148678376	174.999590215388	1719.34611188753	641.935210010795	149.906558813802	925.289239211386	989.970491054628	189.966314047968	1296.78446086288	1165.99155680968	191.644108693311	1916.6665530397	1291.86129851717	149.165960847987	1670.03610957752	1004.64077381232	180.546502604571	2048.25081455944	1283.31304979793	137.679104712785	2410.61594177764	843.472771858149	227.625059754879	1673.26486349518	1095.25151740375	141.673127237637	1872.99860768831
542.820992660645	142	926.511543232089	854.598695882929	240.124815481171	1161.90357859535	598.464470994516	151.848443400415	914.644113181655	1249.01231565277	162.499400155617	1626.13156239738	1179.17690100792	140.791936726549	2151.92759939896	1084.57709538743	150.708594211002	1616.17562070228	478.499781423118	136.143386877018	746.853523937192	1203.20682447296	174.561705019122	1721.14360246437	642.523156467526	149.878461596241	927.171166257792	990.139337159956	189.545551345358	1298.14018131101	1166.42334470345	191.290799563424	1919.21813659824	1292.15142889654	149.082207233226	1671.56189115209	1005.62298524375	180.15663762581	2051.82844084021	1284.7885157936	137.560557081733	2414.11628321127	843.791304842333	226.817841337552	1675.13706177409	1096.02068792564	141.559229858837	1873.95560082298
543.164408667016	142	927.774781329783	853.607784602258	238.887181385719	1161.2216645547	598.549208801742	151.760181164076	915.374273037787	1249.34011851515	162.244736287061	1627.16180395962	1179.48273774728	140.679104712785	2153.59557493621	1084.34028187436	150.499220870109	1616.53288766717	478.906424231667	136.080902728005	748.209626940414	1203.19060157188	174.148037129269	1722.07988745002	643.002431950281	149.853093652666	928.877957060051	990.092401024467	189.143915933765	1299.12980970084	1166.73551642527	190.950592876492	1921.51871058882	1292.18025287984	149.013077025505	1672.65460409321	1006.44184315814	179.773270607435	2054.94266730499	1285.95538317085	137.440770141163	2416.74013621385	844.000297805718	226.022377530006	1676.59754399693	1096.66878720896	141.440770141163	1874.53944666832
543.479557799269	142	928.800914360508	852.695836590631	237.721075310755	1160.44255165558	598.621716707624	151.66163929289	915.90783540943	1249.57237905362	161.987970580652	1627.79537981522	1179.60401165193	140.559229858837	2154.57098030086	1083.80272193752	150.311255756026	1616.13082905548	479.209168000834	136.035529024564	749.218304846926	1202.78899838374	173.760719731388	1722.08426673641	643.367091935377	149.820562641719	930.338521892865	989.829374758522	188.756684411436	1299.69255575337	1166.9196200354	190.615830008302	1923.4588322681	1291.947715342	148.950872493232	1673.23410327504	1007.04495815673	179.400417141062	2057.48647502225	1286.73266882856	137.326872762363	2418.30488586933	844.041275282892	225.24404688571	1677.52086435067	1097.14481960592	141.326872762363	1874.63965417545
543.769315318757	142	929.577988568262	851.848868768575	236.621143944277	1159.55100035091	598.679296416146	151.554667519964	916.241164180079	1249.68068632249	161.732547156245	1627.98878284449	1179.54628539507	140.434792666016	2154.89010556104	1082.95491523376	150.140854403134	1614.97529921874	479.40062236061	136.001327222897	749.868351394631	1202.01447193866	173.399872966687	1721.19379756162	643.627564362968	149.774209448794	931.517311336804	989.384254049786	188.381721448639	1299.8251890417	1166.99994943772	190.279058022811	1924.99347397477	1291.49375338569	148.889166851605	1673.28612397312	1007.40979006843	179.040179276815	2059.44401792918	1287.07983126873	137.224463328309	2418.7697120712	843.88136451285	224.488254116023	1677.87061746594	1097.42003892485	141.224463328309	1874.23056780252
544.03938381044	142	930.12113848814	851.060597162366	235.586327210311	1158.56537800643	598.72156720931	151.445332480036	916.391437718265	1249.65166932035	161.48282081525	1627.75410803875	1179.32648766322	140.310472707504	2154.66692729073	1081.81293806906	149.984730727075	1613.16193880898	479.483381368259	135.970448450583	750.189964066457	1200.90323680482	173.064428204093	1719.52907775911	643.807204099589	149.710504941797	932.417700726006	988.817047050152	188.019054500653	1299.57334314835	1167.02539092197	189.935497326854	1926.13714828713	1290.88875116914	148.821338090192	1672.85252818085	1007.54758778226	178.694889835345	2060.88314308632	1287.0072424692	137.138736624767	2418.23165963903	843.51793697861	223.7610674648	1677.69704176946	1097.49283257158	141.138736624767	1873.36347942309
544.297078229956	142	930.470651565404	850.331949277569	234.619201789081	1157.53267604949	598.752143716781	151.339687930007	916.396075679805	1249.49022187622	161.244469088175	1627.1574545361	1178.97748643575	140.190261526642	2154.07816355078	1080.42548109913	149.839088085624	1610.85987597861	479.468381194105	135.936824549751	750.25152891846	1199.51804306144	172.751601656897	1717.2742139122	643.941474802001	149.629883730417	933.084673965263	988.210213117412	187.671740001368	1299.03066245942	1167.0683094485	189.584859798215	1926.97348854232	1290.22861203764	148.744042967078	1672.03674714754	1007.50022925055	178.364343942123	2061.937669935	1286.57249418858	137.070480148294	2416.90550023571	842.978050042309	223.067411110714	1677.1191152108	1097.38783281793	141.070480148294	1872.15651771031
544.550398038571	142	930.681651755764	849.669663759656	233.726947969448	1156.51293730746	598.778358874569	151.243141865278	916.304915830092	1249.21990691614	161.022827962744	1626.30141383616	1178.54190448897	140.078884203872	2153.3203957594	1078.86303907507	149.700491346808	1608.2747723118	479.37552931524	135.896792399797	750.140664673252	1197.93802637913	172.458497418919	1714.6433795111	644.071786553399	149.537202100069	933.591585933039	987.651680900978	187.344600040119	1298.31706746456	1167.209990925	189.230186811682	1927.6232984966	1289.61842439232	148.655749731121	1670.97596417708	1007.33142066072	178.048028149234	2062.77452392273	1285.87289742446	137.017727277756	2415.0779017026	842.310347635933	222.411757159059	1676.29354210889	1097.14862995536	141.017727277756	1870.76216103892
544.805448372373	142	930.807334565322	849.079876398049	232.914560612517	1155.55862888599	598.80677559527	151.159983372839	916.164843248685	1248.87534550941	160.821426224767	1625.29159318924	1178.06945473389	139.980349573596	2152.57184162162	1077.20834409258	149.566417322572	1605.61151237264	479.22970265068	135.850461924548	749.950897706706	1196.25166763107	172.183312162058	1711.84732012526	644.238044862594	149.439442918267	934.030291375496	987.223729523782	187.042304665861	1297.56656338972	1167.52528639719	188.877671040771	1928.23315814062	1289.15353850279	148.559229858837	1669.82822489947	1007.11199376787	177.74562418175	2063.56840436771	1285.02428301334	136.975676603669	2413.07070080998	841.573733947655	221.79599790868	1675.38735826991	1096.8269694392	140.977003826566	1869.34644239213
545.067488279541	141.998672777103	930.893036027127	848.566125641752	232.183768394231	1154.7027713147	598.844177695794	151.089586400323	916.014088139395	1248.49712156136	160.641547723116	1624.22155647726	1177.60962604804	139.89661867651	2151.97231756698	1075.54660763919	149.433582677428	1603.04358194809	479.059852420895	135.798786836899	749.768170904977	1194.54682104888	171.924024233696	1709.07144882395	644.470960451181	149.344250268879	934.490760052905	986.983672170123	186.768446631897	1296.90052093549	1168.06748563956	188.534400123434	1928.9391127841	1288.89836400671	148.456820424783	1668.74036198827	1006.90917540078	177.457170196022	2064.46746153715	1284.14204822412	136.938843073884	2411.18285507422	840.826147283733	221.221848878425	1674.54591199017	1096.47293804035	140.944820549031	1868.05400870953
545.334832599642	141.995349747749	930.969046965316	848.12443844139	231.530820639745	1153.95330768689	598.892844138322	151.028694031842	915.877918335776	1248.11730087794	160.483515950394	1623.157603312	1177.20769672767	139.828263917263	2151.60514955885	1073.95492408672	149.299508653192	1600.69105060782	478.894629725685	135.743513910331	749.661075077544	1192.90633531488	171.678837513898	1706.45926381875	644.785130251839	149.257284255818	935.047223701198	986.950180775578	186.523000092065	1296.40722570622	1168.85243604946	188.207091384014	1929.84389852503	1288.87341369876	148.352388991828	1667.82202503023	1006.77010388524	177.183312162058	2065.56711995752	1283.31666775175	136.901196270953	2409.64517507273	840.111708108263	220.688943784598	1673.87058551327	1096.12060122468	140.917596325812	1866.98106380178
545.600359570244	141.988250197392	931.048377110415	847.740607747803	230.945558701809	1153.29285694314	598.95058731427	150.971305968158	915.769786093152	1247.75206764901	160.344338182257	1622.13271619241	1176.89877899277	139.774597830332	2151.50844884624	1072.49462376236	149.162239137273	1598.62060452872	478.75932489507	135.685412952625	749.678072257932	1191.40453242852	171.446747616311	1704.11873398054	645.174198035911	149.183312162058	935.742156439742	987.099982611092	186.303876588929	1296.12490446033	1169.8490951256	187.90059478298	1930.99022318405	1289.04603690742	148.249315781388	1667.12596448434	1006.71849928236	176.924024233696	2066.89383647249	1282.60347135884	136.857411289132	2408.58458902624	839.456656212061	220.195953606416	1673.40614006827	1095.78428620561	140.894267536593	1866.15945132619
545.849827181863	141.976220778044	931.13143380361	847.390554551684	230.413061664279	1152.68886248571	599.008924540817	150.910413599677	915.693407921503	1247.39409944299	160.220689866219	1621.15266426571	1176.70526505675	139.732113878962	2151.67974206477	1071.20589341824	149.021246748072	1596.84864707114	478.673054017153	135.625583249405	749.845471290136	1190.10112485849	171.226319607954	1702.1215851116	645.615139851903	149.1239101739	936.587801797282	987.379198360835	186.106108427092	1296.04482460041	1170.99317208949	187.617248085495	1932.36474283187	1289.35083964455	148.149538075452	1666.65162634748	1006.75360697392	176.678837513898	2068.40842059052	1282.01871658459	136.803872670298	2408.01397351466	838.867504352719	219.739472983316	1673.14539252435	1095.45700656592	140.873025595694	1865.55348966476
546.064858381715	141.95927654881	931.204773285887	847.043090176944	229.917972289496	1152.09709861849	599.053512756655	150.840016627161	915.64228351073	1247.01197252868	160.107510119041	1620.19311686876	1176.63227289801	139.69848997813	2152.10050793838	1070.10306119016	148.876872874622	1595.35888206197	478.646736542679	135.563880111087	750.170195995402	1189.03198124799	171.017727277756	1700.51487419827	646.072375761461	149.078884203872	937.568202094883	987.712625720554	185.924901023856	1296.12442804801	1172.19297137552	187.358742430659	1933.91132330305	1289.69954183942	148.055104981916	1666.36110132884	1006.85446945542	176.446747616311	2070.02217251144	1281.5472776744	136.738153405309	2407.84815459233	838.335854454544	219.314171700542	1673.04029397017	1095.11857075271	140.85311080812	1865.07578210939
546.22467453486	141.938843073884	931.24410902957	846.661061484717	229.446753178533	1151.47237905472	599.065143494642	150.756858134722	915.598294545636	1246.55288768195	160	1619.20782074845	1176.66875371564	139.670063007232	2152.74016568793	1069.17435623844	148.731577966583	1594.1134894661	478.682792586163	135.5013911549	750.643507226138	1188.20041544904	170.822491589803	1699.31242525947	646.506376485496	149.046700926337	938.649905323501	988.021306267923	185.756684411436	1296.304144229	1173.35061881783	187.126014932723	1935.54825850694	1290.00224491164	147.967272548091	1666.19788659777	1006.99003200798	176.226319607954	2071.62362786896	1281.15845642302	136.660312069993	2407.94079472675	837.844728837949	218.913407516888	1673.02230263266	1094.74536067941	140.833629367401	1864.61557985226
546.312458558668	141.917596325812	931.216484028712	846.210309082591	228.988064056252	1150.77047061684	599.023325689558	150.660312069993	915.530889090805	1245.95871671417	159.893817103856	1618.1307299041	1176.79055010739	139.643196817247	2153.5548670059	1068.38666207586	148.58898655594	1593.05724649495	478.774665680966	135.439448480488	751.242227764258	1187.57337568467	170.641459809738	1698.48130204838	646.883901021911	149.023779221956	939.794423011278	988.240729132132	185.599409135651	1296.52914275618	1174.38428022187	186.918663590732	1937.1981319089	1290.18999288584	147.887318172009	1666.11455809043	1007.13135902192	176.017727277756	2073.1161646264	1280.8239481483	136.57204502648	2408.14361773736	837.379280722041	218.529151290499	1673.03321675477	1094.32353684158	140.813981640771	1864.07917945873
546.316466561285	141.898917788843	931.084939685877	845.663378920849	228.536233685402	1149.95806176646	598.908646175173	150.554667519964	915.401910455765	1245.17599940826	159.785287608929	1616.89298117168	1176.96104973827	139.615830008302	2154.48971337519	1067.68900656297	148.453847166669	1592.12706569979	478.909807374103	135.379613215047	751.936704918915	1187.07725458901	170.476299165728	1697.9323034518	647.181540581696	149.007099550358	940.965461871419	988.325176440312	185.452519943772	1296.75497401008	1175.2362907822	186.734800013389	1938.80037965097	1290.21797443432	147.815186891758	1666.07627668538	1007.25832791363	175.821164366906	2074.44030705953	1280.52721033418	136.476826184648	2408.34833417045	836.930342586624	218.155315965134	1673.03910323948	1093.85370172933	140.793141977537	1863.41792091856
546.23533549617	141.886102621199	930.817974037234	845.008858450901	228.089708372233	1149.01912514914	598.710598396596	150.445332480036	915.174715168788	1244.17732778573	159.673389095498	1615.44031551238	1177.14074621389	139.586454082056	2155.47352174474	1067.02757267013	148.331523014614	1591.25518821179	479.07100364282	135.32485423823	752.693420717542	1186.61379994302	170.326872762363	1697.51882299706	647.391057791094	148.992900449643	942.132223661168	988.25122728418	185.315122959755	1296.94513425093	1175.88232466552	186.569874741689	1940.31201620836	1290.0697782574	147.749491385479	1666.06028563214	1007.36383365471	175.636809557488	2075.58732053521	1280.27384530704	136.379613215047	2408.52128764625	836.500647130827	217.788178116048	1673.04170207205	1093.35726025381	140.770626461463	1862.64453339201
546.075628902354	141.881540282327	930.398807834013	844.253325235211	227.651037427671	1147.96099471027	598.429332699224	150.339687930007	914.825228840311	1242.96829139597	159.559317772215	1613.75327583336	1177.2924033034	139.556233883046	2156.43137582012	1066.35736056424	148.227117774103	1590.38494480351	479.239992559211	135.277315453081	753.479394395752	1186.07714756667	170.190261526642	1697.06317249655	647.51849504599	148.977548000941	943.271476802051	988.020396295933	185.185611274391	1297.06281861377	1176.33207490574	186.418859616705	1941.7054081436	1289.75828250236	147.688067398419	1666.04496636415	1007.45217017253	175.46454936312	2076.5837627423	1280.08190043478	136.286149311173	2408.6946778032	836.100740277179	217.427624208827	1673.06630464395	1092.86670618657	140.745248218066	1861.82252991592
545.854150310977	141.8861026212	929.827261014479	843.422686236536	227.225790551206	1146.81140532637	598.07710874476	150.244469088175	914.346920921736	1241.59024946505	159.446659702933	1611.8491807635	1177.38485231084	139.527824067602	2157.2874251033	1065.64902462445	148.143386877018	1589.4736982998	479.398913870212	135.239818835924	754.264614843061	1185.37256321018	170.062484149013	1696.38132477189	647.578171705772	148.957949325913	944.363507591308	987.646699961723	185.059829703219	1297.06820983744	1176.61507186735	186.275185256861	1942.95645349207	1289.31193899342	147.628906278759	1666.00209900513	1007.53603539335	175.303093540407	2077.47683142989	1279.98001946468	136.20201132925	2408.95054255316	835.746751301347	217.07713477851	1673.15179128818	1092.42348819233	140.715172349502	1861.04676644341
545.591728473923	141.898917788843	929.122060913949	842.556290017669	226.820549434607	1145.61770189639	597.676250681525	150.16463362509	913.755887298777	1240.11240398738	159.339687930007	1609.78613297198	1177.3926080269	139.505184900931	2157.9720672248	1064.89008893342	148.080902728005	1588.5006805367	479.531489785981	135.213929076511	755.021824743374	1184.43008748109	169.938843073884	1695.31556320175	647.590813150129	148.932865598736	945.387563107664	987.154590907321	184.932865598736	1296.9127663483	1176.77312345046	186.134859772532	1944.03090354603	1288.76929593312	147.570979661445	1665.89085871599	1007.62628140627	175.149538075452	2078.30768376523	1279.99201143671	136.13163707441	2409.38343150465	835.451943291506	216.743319507195	1673.32410782618	1092.06200972786	140.678225488889	1860.41064286883
545.311949757036	141.916269102915	928.321681894343	841.70058877075	226.440596417877	1144.43805943297	597.255957032922	150.102663425828	913.089121501274	1238.61898326271	159.243141865278	1607.65832314838	1177.30074538981	139.490863758734	2158.43088983821	1064.09089915691	148.036856247461	1587.46774512918	479.623517873731	135.199362445678	755.725851591064	1183.22283433548	169.815715948506	1693.76721937766	647.575704382748	148.901196270953	946.323302215955	986.568063054542	184.79798867075	1296.55031681152	1176.84475806273	185.995443223349	1944.89003170772	1288.16855122075	147.514747797145	1665.6679390007	1007.72594367398	175.001327222897	2079.09271519953	1280.13046389297	136.077579698651	2410.07015071735	835.21966892608	216.433426109596	1673.58194965935	1091.80313654291	140.632420941902	1859.97944233447
545.033522918285	141.934192821633	927.473796216359	840.896324512329	226.088207426049	1143.32903741307	596.846661497162	150.058450728946	912.3990732039	1237.1910608487	159.159983372839	1605.57735902854	1177.10344173021	139.486055931226	2158.63050636618	1063.27883780278	148.005977475148	1586.40440737063	479.666525319627	135.192781582672	756.355886478715	1181.7708213263	169.690854515393	1691.72112375467	647.550525506669	148.863388764279	947.156182182896	985.913812058913	184.650675238578	1295.96014030752	1176.86070493191	185.857766622592	1945.50109885749	1287.54835387884	147.462370184869	1665.31127539665	1007.82931027575	174.856439399695	2079.82175379489	1280.39559621556	136.040179276815	2411.05777649887	835.042111936028	216.151564210265	1673.88900360017	1091.65075675563	140.576581172908	1859.78019135066
544.771886070939	141.946199523305	926.630744406176	840.174936188688	225.762024236609	1142.33902625651	596.478476213489	150.029756697104	911.745497172062	1235.90078231724	159.089586400323	1603.6605031135	1176.80677720437	139.487100616413	2158.56720501077	1062.49807117739	147.980871030295	1585.36429890492	479.656450473328	135.189463360493	756.896595766463	1180.14155685997	169.565207333984	1689.25317072652	647.532138352078	148.820272725157	947.881962404568	985.22120511599	184.487627635333	1295.15611651984	1176.840657356	185.725167989147	1945.84468570602	1286.94726144369	147.416446744832	1664.82918954354	1007.92031559215	174.714633737349	2080.45936052178	1280.7774582675	136.017727277756	2412.35339599404	834.894936120153	215.898650589957	1674.17418838079	1091.58980562852	140.510888100364	1859.79454146533
544.537923097392	141.947791303837	925.852648216835	839.554554965957	225.459824641816	1141.50967263022	596.179579585306	150.013077025505	911.201050640136	1234.80644535424	159.030021254739	1602.03021456175	1176.43307336147	139.489099481782	2158.27478737183	1061.80838870916	147.954626296559	1584.42737424335	479.596091713361	135.184813108242	757.342475213748	1178.45186031517	169.44209736406	1686.53450129174	647.534530802068	148.77500965277	948.51686259863	984.528350737554	184.311787512548	1294.21197464258	1176.79812204916	185.602058019224	1945.94433678574	1286.40877845524	147.38030278797	1664.28799685645	1007.97742681829	174.576957136592	2080.96167418555	1281.25784368077	136.005977475148	2413.93140146568	834.743654585541	215.670412778471	1674.34560986113	1091.59046025348	140.436102733458	1859.97133381616
544.337764781358	141.935776943594	925.193072941981	839.038470786417	225.178867057495	1140.8642838866	595.973794389985	150.004650252251	910.833399507224	1233.94674341421	158.977283443306	1600.78516217766	1176.01922244531	139.486323130112	2157.83006309914	1061.27625445354	147.921115796128	1583.69920652639	479.49612887764	135.175054304917	757.698996475897	1176.85322604581	169.326872762363	1683.8231660144	647.575041598623	148.730792218287	949.095554982011	983.892037712275	184.13083890826	1293.2582794219	1176.7494770229	185.493784869562	1945.86355353468	1285.98948249558	147.355846410945	1663.80479153704	1007.98692759766	174.446747616311	2081.30294917007	1281.82912868592	136.001327222897	2415.75918353739	834.554168711348	215.460353698564	1674.31970598969	1091.62402730892	140.355833993091	1860.25098308659
544.177519771854	141.910413599677	924.703428446039	838.619684986549	224.917972289496	1140.41849776454	595.879905204785	150.001327222897	910.706165060205	1233.34156038414	158.928140877433	1600.00344940704	1175.61733517904	139.473241297433	2157.36204528115	1060.97182306319	147.8760898261	1583.30751457621	479.372308517003	135.159183168863	757.987437575562	1175.51451474321	169.225790551206	1681.44370478617	647.671842987532	148.692979904439	949.672275489819	983.389830971558	183.958695740686	1292.48375438064	1176.72003800442	185.40551782605	1945.72016040111	1285.75635395399	147.344091801163	1663.54815223733	1007.94969568976	174.32819998526	2081.49984302732	1282.49326864606	136	2417.81787848287	834.302785423797	215.263366547421	1674.04999400244	1091.67058117797	140.274399508565	1860.59352672693
544.06277986501	141.874218428828	924.430618527189	838.286376120339	224.678293339523	1140.17866150712	595.910445216449	150	910.86864076776	1232.9955970044	158.880195903976	1599.73131724668	1175.2832931206	139.447069487545	2157.03270849311	1060.9539569117	147.816687837942	1583.38476210232	479.244469088175	135.137676600757	758.240011565757	1174.59748808891	169.143386877018	1679.74407122008	647.840582956536	148.666543536915	950.308377084138	983.108762525188	183.809930413933	1292.10937939948	1176.74177551636	185.340730798563	1945.66731211776	1285.77631571018	147.342923045982	1663.70665925716	1007.8886997046	174.225790551206	2081.62292258333	1283.26976360024	136	2420.11699770637	833.988266227056	215.079880662076	1673.55063240307	1091.7291094509	140.197361077	1860.99509737295
543.999342023049	141.833110610476	924.412361693899	838.027295643529	224.463170388846	1140.146980936	596.07080189804	150	911.348559832553	1232.89742219073	158.833110610476	1599.97737150765	1175.07344313672	139.408216412541	2157.01941002722	1061.26437410168	147.742715744182	1584.05141660231	479.132013038094	135.114159236662	758.49959413402	1174.23632716332	169.083557173799	1679.05161810691	648.092953373929	148.657078853902	951.064940043323	983.137912418527	183.699383519763	1292.35996950879	1176.85227141337	185.299581311	1945.88081798796	1286.10743202433	147.349312343569	1664.46268158634	1007.84830851401	174.143386877018	2081.79458300613	1284.18881243155	136	2422.6968144241	833.635659946797	214.91700040006	1672.90513427518	1091.82039779673	140.130309851513	1861.49809321402
543.998123702892	141.791949144403	924.679557590699	837.840720306794	224.275553008175	1140.32397054138	596.360463438621	150	912.150065422419	1233.03052774943	158.787298892152	1600.71980645753	1175.0333454608	139.358802048123	2157.49140023177	1061.92198869639	147.655749731121	1585.39555727112	479.053194251121	135.09170417869	758.813734697001	1174.52038511572	169.046156751962	1679.62747525823	648.433195847706	148.668295000104	951.990186100817	983.548584234542	183.636627572205	1293.42352590586	1177.08667390751	185.281854392383	1946.52926310434	1286.78234863003	147.357568300826	1665.95473318296	1007.88626709589	174.083557173799	2082.17027917993	1285.28083518536	136	2425.61545856691	833.291843290831	214.788171753937	1672.25692335909	1091.98123194594	140.077579698651	1862.18178977276
544.069272434746	141.756678849214	925.248377628019	837.735937943571	224.118656395849	1140.70930699722	596.771906326055	150	913.250041222672	1233.37393923108	158.744929046606	1601.90728451349	1175.2002809911	139.302831682546	2158.58098491187	1062.9263687432	147.559229858837	1587.45435689794	479.024331233593	135.074233951621	759.229089694979	1175.49179127989	169.029477080364	1681.62518675669	648.857003829186	148.70088242812	953.116013426586	984.378424190094	183.623929210159	1295.41169328269	1177.46783933196	185.283181256141	1947.74747243688	1287.79995529317	147.361461696999	1668.24722633288	1008.05687473199	174.046156751962	2082.89201372471	1286.56113468768	136	2428.90401314473	833.013267135789	214.706472770298	1671.7679239585	1092.25078685938	140.040179276815	1863.12900882235
544.223426480385	141.731481791209	926.115915450599	837.729482343216	223.994743522175	1141.29666472178	597.290635350701	150	914.600735713842	1233.90427691135	158.707702569253	1603.46274304129	1175.59053367385	139.245446539832	2160.34409788775	1064.25052096532	147.45814764768	1590.18785010095	479.057323046672	135.064502673146	759.778567457548	1177.13272383784	169.029756697104	1685.05124219264	649.350719834953	148.752023859363	954.447928363129	985.613249648819	183.655853758318	1298.32098716233	1177.99551904024	185.299224298851	1949.59811069791	1289.1161264399	147.355998171603	1671.29992926761	1008.39115006102	174.029477080364	2084.03803072839	1288.00904543392	136	2432.51747759745	832.844370746996	214.679121078981	1671.5677238686	1092.65246838822	140.019054500653	1864.38426989366
544.464906341058	141.719301145054	927.252249992033	837.836773935888	223.903940530009	1142.06620311569	597.890388854066	150.001327222897	916.129543533712	1234.58884164996	158.678577693864	1605.28416420501	1176.19866964	139.190149854555	2162.75182330317	1065.84150842402	147.358366466975	1593.47537558953	479.15733472648	135.064502673146	760.478045121124	1179.36653498782	169.042050674087	1689.75521602976	649.891597835229	148.814405881063	955.956555495538	987.183255471269	183.719301145054	1302.01521648298	1178.64327790952	185.323287875148	1952.04733497852	1290.64856598332	147.338106715335	1674.95906396587	1008.88557876136	174.029756697104	2085.58718539468	1289.56019699343	136	2436.29562315144	832.805717105834	214.701319086266	1671.70965628832	1093.18161764716	140.010627727398	1865.91460425437
544.785270789106	141.721295272823	928.592137159368	838.055436281683	223.845205446723	1142.97212399703	598.531369713956	150.004650252251	917.740883778851	1235.37235421386	158.65881112381	1607.23999670795	1176.98862902708	139.141261487972	2165.67122682485	1067.61216201844	147.265715836247	1597.10570408243	479.320975555703	135.072906728724	761.314556137297	1182.04974297814	169.061156926116	1695.42558449401	650.445904647079	148.879326979902	957.570901673243	988.964554624786	183.796923305714	1306.22661323738	1179.35402599005	185.349070769648	1954.95212852628	1292.2797156695	147.308347318458	1678.96137190702	1009.49638258794	174.042050674087	2087.39543510891	1291.10757006074	136	2439.94382138024	832.882563596824	214.755687953231	1672.13087208682	1093.80086540244	140.013077025505	1867.58428923683
545.159855838708	141.73667865157	930.030954489496	838.355696962977	223.814235632545	1143.93104783324	599.159037417443	150.011749802608	919.316706067262	1236.17021643908	158.648297502234	1609.16312251349	1177.88949708954	139.101458174841	2168.8626033623	1069.43743288232	147.185067100016	1600.78328539079	479.530977084799	135.087053926439	762.237924460255	1184.97509867667	169.082403674188	1701.60903141036	650.968005260133	148.93656269189	959.169510644122	990.789452336901	183.869428290626	1310.57681877432	1180.04424822532	185.37028999287	1958.05567447944	1293.86857583965	147.269207781713	1682.95235740775	1010.14114122357	174.061156926116	2089.20347927944	1292.50857206284	136	2443.054052327	833.020939553277	214.814562448895	1672.64380934302	1094.43853690557	140.023779221956	1869.15589025091
545.547984544208	141.761648272924	931.424384663033	838.675454864984	223.802371724114	1144.81350199303	599.709143402354	150.023779221956	920.715753041461	1236.8714400848	158.644166006909	1610.84338092104	1178.79810936841	139.071784653514	2171.9997470614	1071.15974138579	147.119607655062	1604.1547790767	479.756283878983	135.102409434054	763.1601788588	1187.88081413428	169.09975498826	1707.75383942275	651.400141155689	148.976747796964	960.590976602608	992.469474350491	183.919624290916	1314.63297567797	1180.61159209503	185.380567949029	1961.02623855148	1295.26562945927	147.22499034723	1686.53684392881	1010.70853311358	174.081076451291	2090.66759597572	1293.60104369182	136	2445.15276932118	833.132921417177	214.844050698544	1672.95253079794	1094.99602476528	140.04072345119	1870.31079384917
545.896525008539	141.791953882004	932.601829387352	838.92659221522	223.798005826204	1145.45200488527	600.116844986345	150.04072345119	921.787821929244	1237.3517451865	158.641200255742	1612.04406773175	1179.58737905535	139.055127699592	2174.69542845652	1072.59824002379	147.070480148294	1606.83962712322	479.953285674179	135.1138973788	763.959066420233	1190.47555654918	169.107919903653	1713.26382416062	651.67847107821	148.995616946636	961.641403611492	993.823961853028	183.934981477218	1317.95613429109	1180.95345840833	185.375489981717	1963.49083939063	1296.33404196099	147.179727274843	1689.31932288251	1011.07617959273	174.095104736009	2091.408017891	1294.22804092553	136	2445.77106295065	833.111067795799	214.813770644857	1672.696890345	1095.36445429295	140.061156926116	1870.69831499411
546.149202007967	141.821879564793	933.387568348688	839.008501073004	223.786145392542	1145.66088909273	600.325568087839	150.061156926116	922.388896627782	1237.48968213539	158.632939698827	1612.52382164227	1180.12481399556	139.05353591906	2176.53855962779	1073.57595850688	147.036856247461	1608.47385212264	480.070431376067	135.118459717673	764.486744716448	1192.47289958282	169.100732439917	1717.56504310409	651.735877759604	148.993224358703	962.118497115613	994.699827947921	183.910994407801	1320.16019174514	1180.97841475124	185.351328967817	1965.08833774762	1296.96179220087	147.136611235721	1690.95449017836	1011.12383362374	174.096170101045	2091.0673710416	1294.25640737054	135.998672777103	2444.51896030513	832.844900672496	214.702065513476	1671.5143132987	1095.43703343484	140.082403674188	1869.98930708929
546.255297642049	141.84670909268	933.630181738941	838.829591384959	223.751402116274	1145.26909581325	600.299839855055	150.082403674188	922.404327285443	1237.19436208663	158.613204058818	1612.07933126065	1180.29684660664	139.068873308657	2177.16422172439	1073.94813951945	147.016400054859	1608.77345152783	480.057490218598	135.1138973788	764.592189320649	1193.63898746268	169.072390879089	1720.19111320378	651.514261871154	148.974893555147	961.844051312865	994.996454929736	183.850635647835	1320.96483812545	1180.62358529705	185.307717930479	1965.53275447688	1297.07846147438	147.098803729047	1691.19729264586	1010.75192180138	174.076953217961	2089.36319486165	1293.59357995022	135.995349747749	2441.14914129983	832.240303688743	214.501108646015	1669.104232838	1095.12476517456	140.101082211157	1867.93402184418
546.179540164511	141.863795849117	933.227680440435	838.325342625613	223.680229695284	1144.1531420173	600.028848589448	150.101082211157	921.767930504885	1236.41978140824	158.577646537944	1610.58257914643	1180.02473821114	139.101336202931	2176.29556262146	1073.62908674288	147.005977475148	1607.56992274773	479.873646951334	135.101082211157	764.141215939695	1193.82499060788	169.018852260255	1720.83813769917	650.974131408715	148.948324912351	960.689278899959	994.678755309314	183.761930589438	1320.22850768306	1179.86962318204	185.2443809536	1964.65113625293	1296.66711659617	147.067134401264	1689.92998228096	1009.90001652669	174.032994650796	2086.1270677837	1292.20916639681	135.988250197392	2435.59252595744	831.2401828239	214.21840368479	1665.2837805808	1094.37782800026	140.1138973788	1864.40077105609
545.908051397379	141.87170867262	932.15184644002	837.475401288302	223.563688170512	1142.26903973743	599.531783929362	150.1138973788	920.480717663772	1235.17971618415	158.524916385082	1608.0146160785	1179.28129140349	139.148233570231	2173.80452113892	1072.61063150131	147.001327222897	1604.8533143689	479.495360959183	135.082403674188	763.04477168093	1192.99284343459	168.93901679717	1719.41549550398	650.103704743103	148.920848597242	958.603270521097	993.777481769362	183.656459983892	1317.96676330229	1178.74299236817	185.164110534545	1962.42128254763	1295.76469485279	147.042050674087	1687.18467223625	1008.55296951313	173.962345586389	2081.34305950552	1290.13549424055	135.976220778044	2427.98808878259	829.834966528446	213.873743493356	1660.03375970052	1093.18753201291	140.118459717673	1859.41280199665
545.45285560474	141.870895399474	930.454254396595	836.311108311288	223.400635760093	1139.66675007075	598.853526737577	150.118459717673	918.613613347373	1233.54776032655	158.456022258634	1604.4815022921	1178.09734767607	139.202962588463	2169.73011300752	1070.97193502058	147	1600.7754268279	478.920878982877	135.061156926116	761.27423585735	1191.22644741098	168.83536637491	1716.05453525522	648.923920258393	148.898014806239	955.628125553364	992.38229922416	183.545625814411	1314.34992624985	1177.3141707114	185.069326648683	1958.9822279599	1294.45681363621	147.023779221956	1683.14373951116	1006.74852622365	173.86836292559	2075.15132875107	1287.47287436523	135.957949325913	2418.66643217265	828.069372859153	213.494622369235	1653.50977989989	1091.59753405356	140.1138973788	1853.14664250217
544.848697199818	141.863388764279	928.255121335691	834.909338276298	223.196828071909	1136.48143969508	598.057893155087	150.1138973788	916.296379643064	1231.64856759824	158.377594690914	1600.19304069828	1176.56103554937	139.257457979105	2164.2987012519	1068.87322810893	147	1595.64768700788	478.172840810121	135.04072345119	758.876479313556	1188.72038283125	168.715177911724	1711.10194535282	647.489766303352	148.880125146052	951.902644404881	990.6313455076	183.439704776128	1309.6852286388	1175.69185229403	184.965048876271	1954.61986044449	1292.87136287279	147.011749802608	1678.1257167667	1004.57259782426	173.758063385709	2067.84303568359	1284.37807367186	135.932865598736	2408.12915850304	826.035358665706	213.110454277421	1646.03044885692	1089.69591892804	140.101082211157	1845.9226973507
544.149501138456	141.850573596635	925.724017942261	833.38373088077	222.964470975436	1132.91744025377	597.221297340362	150.101082211157	913.700008458415	1229.64298356189	158.295993990049	1595.43944966626	1174.80358394788	139.301945603018	2157.88835251187	1066.53219510799	147	1589.89543279399	477.29482988383	135.023779221956	755.968625894863	1185.74849955897	168.58898655594	1705.06337062065	645.88396383267	148.862061541382	947.642036812018	988.686565651907	183.344338182257	1304.36202199292	1174.00183083869	184.855112176798	1949.71414343779	1291.15660823651	147.004650252251	1672.53196000921	1002.14849427219	173.640676761216	2059.82953736295	1281.04601161765	135.901196270953	2396.99385274448	823.8583424856	212.747468982596	1638.04066621509	1087.60366026181	140.082403674188	1838.16566137558
543.418928119556	141.836166578886	923.056969242982	831.863768953415	222.722269200086	1129.22032249672	596.419492549046	150.082403674188	911.018311167467	1227.70410450777	158.221140298956	1590.55434198293	1172.98508642321	139.328876968758	2150.98971063385	1064.19543712666	147	1584.0076540316	476.346523188767	135.011749802608	752.728048842123	1182.62730212736	168.470247221527	1698.53973424234	644.202330753087	148.838020820704	943.112515322987	986.708018351554	183.264501040485	1298.80735485763	1172.36654371112	184.744934608827	1944.68887217263	1289.45857179887	147.001327222897	1666.80081682947	999.622893369639	173.525706289236	2051.59578118455	1277.68908834692	135.862061541382	2385.92342256309	821.682358960812	212.42437588574	1630.05124782285	1085.45968439139	140.061156926116	1830.34985047127
542.719376072517	141.823618472186	920.441445523076	830.473897247165	222.491506387453	1125.63480585298	595.719516261715	150.061156926116	908.435778485645	1225.99438400925	158.161188623826	1585.8599775111	1171.26639076539	139.33343930763	2144.14533405524	1062.09743556302	147	1578.47645479785	475.393573482363	135.004650252251	749.369720151394	1179.66532647491	168.371702291429	1692.15232500966	642.543457395294	148.800106449116	938.585564668699	984.837793776861	183.20210480485	1293.41876202236	1170.88932628941	184.639441285605	1939.93193860892	1287.90482336167	147	1661.33645497223	997.154593964405	173.422353462056	2043.64340959893	1274.51759120124	135.816949695803	2375.5528733837	819.653109354706	212.154652425962	1622.57425976075	1083.40538205772	140.04072345119	1822.9387676331
542.104098679276	141.816514114655	918.03665402023	829.316171575853	222.292751229183	1122.37619799263	595.17221836946	150.04072345119	906.108715383195	1224.64247777021	158.122953402092	1581.63184081943	1169.79516079377	139.314760770662	2137.87160333272	1060.43467202497	147	1573.72630882457	474.501949977327	135.001327222897	746.115568586669	1177.12782382241	168.304697472754	1686.45586735498	640.992603398972	148.746563023109	934.305966716865	983.182617981844	183.160315988624	1288.52067685952	1169.64183886065	184.545551345358	1935.74952047185	1286.58726484599	147	1656.46278765278	994.896031191883	173.337500489761	2036.42564499137	1271.71767700487	135.767910102413	2366.4085214073	817.902005759741	211.946341750331	1616.05128999834	1081.56895328183	140.023779221956	1816.32199310329
541.611515823536	141.816514114655	915.95347038655	828.461796258421	222.142261894519	1119.59848523172	594.810632114702	150.023779221956	904.146366296242	1223.737660548	158.108640900976	1578.06235291361	1168.68252392403	139.276136516073	2132.58792251922	1059.33616512792	147	1570.05900974826	473.727235285507	135	743.164353715982	1175.2013083171	168.275023951428	1681.86790601494	639.613620819573	148.679104712785	930.45993545532	981.805244941854	183.141637451656	1284.3286967053	1168.65648040436	184.470788696128	1932.32750572326	1285.55155852496	147	1652.38156704736	992.98099467809	173.276338756471	2030.28615895929	1269.43778114405	135.718762798939	2358.84573060701	816.533908035091	211.802923735751	1610.79411022549	1080.0539663653	140.011749802608	1810.76177007914
541.25976441565	141.824945695083	914.2441141714	827.94403225117	222.052672794422	1117.37976086894	594.647291653977	150.011749802608	902.599435414517	1223.31547491494	158.1178582297	1575.24088607537	1167.98997019653	139.224209336535	2128.56531766273	1058.85047097073	147.001327222897	1567.61951656236	473.109213029786	135	740.666619115639	1173.97606583809	168.284241280152	1678.62401919467	638.44709708328	148.605930785174	927.162309649374	980.73013802335	183.149364352165	1280.93794821869	1167.93657809097	184.421917880908	1929.72376943524	1284.8061013718	147	1649.16631874664	991.503922532987	173.242196168287	2025.4111429505	1267.76593911677	135.674708452308	2352.99757542952	815.611513975813	211.726598198208	1606.94232551239	1078.92089800425	140.004650252251	1806.35669096503
541.051368526414	141.840816831137	912.901962570537	827.764239559428	222.028981485844	1115.71856469828	594.676607804015	150.004650252251	901.462273497758	1223.36743977104	158.148566186016	1573.15163399348	1167.7224520024	139.167339822261	2125.8844493828	1058.94422253302	147.004650252251	1566.37494198376	472.667299037519	135	738.703808314496	1173.4423753095	168.327655810885	1676.74709646991	637.509446842529	148.538783314741	924.452759610984	979.94563938925	183.185437551105	1278.32586594874	1167.45896253956	184.405233471709	1927.8794834261	1284.32461100598	147	1646.76662097228	990.509094172364	173.237633829414	2021.8077314606	1266.72208500387	135.641459809738	2348.76666362926	815.149927639355	211.7148483956	1604.45318030272	1078.18198584532	140.001327222897	1803.03396298587
540.969330278875	141.862323399243	911.865930489298	827.892437173995	222.070921528876	1114.54503530179	594.873958343979	150.001327222897	900.676765923663	1223.83325118712	158.197454552599	1571.68714166951	1167.83687258177	139.113630179914	2124.44972093853	1059.51658661979	147.011749802608	1566.13675598234	472.402154900497	135	737.286794718915	1173.50460003529	168.397340492803	1676.06658049793	636.795243569641	148.490179164556	922.304218187543	979.410664378613	183.249569773162	1276.37123330604	1167.18050589167	184.421917880908	1926.64178831748	1284.05430211803	147.001327222897	1645.03089703652	989.98354140012	173.260869143033	2019.3134036506	1266.25365514132	135.622755080325	2345.84845107252	815.114736016949	211.761417236039	1603.11952553295	1077.79870223733	140	1800.57642523144
540.982295677134	141.887167986235	911.031977076357	828.275189133343	222.174846760703	1113.73766348335	595.198087888921	150	900.144687421459	1224.61217953306	158.261846594691	1570.66829069126	1168.23963288986	139.069152925397	2123.99764457672	1060.40803148756	147.025106444853	1566.58747965053	472.294642881571	135	736.355724383048	1173.98736908198	168.482803659796	1676.24297999607	636.279569645628	148.470259639381	920.627710624637	979.060796072426	183.338622564971	1274.87080422574	1167.04392657828	184.469461473231	1925.77878515294	1283.92545796715	147.004650252251	1643.72403236083	989.861087779077	173.309521448292	2017.63428646898	1266.24236250611	135.621186988929	2343.78967170625	815.429157103069	211.856807101384	1602.6155280883	1077.68915482579	140	1798.66879830185
541.049668981369	141.912946073561	910.272824842739	828.843885741844	222.334003737121	1113.15039548042	595.596100828017	150	899.745565204627	1225.57567804263	158.339687930007	1569.88072480827	1168.80881404778	139.036856247461	2124.16571642486	1061.43131091178	147.046700926337	1567.345138259	472.310854470623	135	735.800950387542	1174.67185715593	168.573372249377	1676.83775334298	635.920998434947	148.483074807025	919.290656708953	978.81374767753	183.445420393414	1273.58121135492	1166.97995115563	184.540901093108	1925.02083152587	1283.85578468609	147.011749802608	1642.5716411553	990.03466144482	173.377607108768	2016.40533042693	1266.52236638692	135.634266783781	2342.06960291158	815.988771891743	211.98756079604	1602.56137874541	1077.74381904655	140	1796.96196472192
541.124895270448	141.937515850987	909.455307810137	829.520431897369	222.540727369821	1112.63536239695	596.007390286757	150	899.353115072161	1226.57997201487	158.42795497352	1569.10451324009	1169.40705314999	139.016400054859	2124.54874402513	1062.39360853994	147.078884203872	1568.02182865327	472.407336132448	135	735.482755146023	1175.31875700108	168.660312069993	1677.37618864557	635.667022135696	148.527562430938	918.138227423667	978.578412928626	183.560557081733	1272.2517693387	1166.91212094975	184.6263642601	1924.09849554697	1283.75545189954	147.023779221956	1641.29546065255	990.376683118098	173.457714370397	2015.25720055678	1266.90930161675	135.65654789727	2340.19013375662	816.678628721116	212.139351557066	1602.58769965437	1077.84972590531	140	1795.14203793668
541.165205943736	141.95927654881	908.46046104549	830.233071642145	222.787130681462	1112.06512485879	596.373783818254	150	898.852277861582	1227.48957869014	158.523173815352	1568.14474209039	1169.90597613249	139.005977475148	2124.75514886587	1063.12555720247	147.1239101739	1568.27628650601	472.537283157815	135	735.252315368989	1175.70740076978	168.738153405309	1677.413635774	635.459311871041	148.594846796779	917.010554164745	978.262683219244	183.67180001474	1270.65909884938	1166.76164223149	184.715177911724	1922.77269864651	1283.53370172247	147.04072345119	1639.64975475498	990.757456429401	173.542285629603	2013.87760622155	1267.22466980616	135.680768262596	2337.75413391142	817.391008153237	212.298186992516	1602.39581764122	1077.9082005451	140	1792.98620857826
541.136521852578	141.976220778044	907.203856635617	830.922090325915	223.06575542699	1111.35328874575	596.647563046005	150	898.154729366062	1228.19764064278	158.620386784953	1566.86154349659	1170.2035836581	139.001327222897	2124.4697795248	1063.50424193442	147.183312162058	1567.86593863315	472.656456035549	135	734.974428093885	1175.66152394033	168.803872670298	1676.59777934449	635.240774359164	148.673389095498	915.77378562492	977.785851028479	183.769559196543	1268.64859282205	1166.45817245508	184.79798867075	1920.89007610876	1283.10884874985	147.061156926116	1637.46822084923	991.064474451772	173.625047337026	2012.04717249765	1267.32265433894	135.69902423796	2334.50676684492	818.037457276124	212.45269922928	1601.78837248127	1077.85025997989	140	1790.38796527555
541.018293392986	141.988250197392	905.646709251997	831.549895832684	223.37032141727	1110.464086591	596.798542368127	150	897.211127930396	1228.64229415738	158.713850688827	1565.18978988866	1170.23774631378	139	2123.48332103944	1063.46399691519	147.257284255818	1566.66518568	472.728867544861	135	734.543921002881	1175.07335823934	168.857411289132	1674.70395975868	634.965742591275	148.749758584365	914.330868471245	977.087933030657	183.844863320374	1266.13991246575	1165.9479597513	184.869690148487	1918.38739133754	1282.41302273386	147.083730897085	1634.67225852074	991.212704293613	173.701106279107	2009.65932515546	1267.10358460148	135.706187305331	2330.3557100773	818.557581043182	212.595897310225	1600.68694423804	1077.64543869799	140	1787.36773496951
540.80515587937	141.995349747749	903.803315088929	832.106705897149	223.698871504036	1109.41656791997	596.817606424185	150.001327222897	896.018571388337	1228.81303703731	158.799315893647	1563.14842468573	1169.99401715247	139.001327222897	2121.70996907617	1063.00696515806	147.345577491776	1564.66961215832	472.731809407448	135	733.892431360954	1173.91572102957	168.899869048056	1671.65478084183	634.602725872049	148.812914375851	912.632673520588	976.137047649948	183.893990827142	1263.13618022992	1165.20321016178	184.928397776497	1915.3003963457	1281.40779576099	147.107059686304	1631.27740122846	991.152090396201	173.769935160227	2006.70721453111	1266.51977825733	135.700351460857	2325.34165599466	818.921140791112	212.724913997373	1599.11561544597	1077.29629569448	140	1784.04318432261
540.505771316119	141.998672777103	901.733934200142	832.60726091536	224.05213422711	1108.27548555345	596.715950468052	150.004650252251	894.616001501389	1228.74919087745	158.874340400738	1560.82978039213	1169.50420910236	139.004650252251	2119.19284484852	1062.19370787774	147.445420393414	1561.98937292457	472.657861710052	135	732.997406247396	1172.24328167653	168.934192821633	1667.53048459957	634.13948990761	148.856613122982	910.680601007491	974.938832479712	183.917770049098	1259.71842922642	1164.2292249583	184.977548000941	1911.75703489924	1280.09035370655	147.131624656556	1627.39020337898	990.866817925714	173.833629367401	2003.26625681708	1265.57033348622	135.685418514846	2319.60931842877	819.125369253115	212.843121505692	1597.17658698328	1076.83219179465	140	1780.59716333416
540.138301022819	141.998672777103	899.528883109983	833.086112581771	224.435871696573	1107.12905891552	596.520099244376	150.011749802608	893.070484945298	1228.52431784302	158.940147579105	1558.37527740826	1168.83147157232	139.013077025505	2116.0652370036	1061.12876136087	147.554929377825	1558.80932521851	472.513653914998	135	731.870864652165	1170.17596670559	168.963926801061	1662.53293059302	633.58397376353	148.880392344938	908.517780034817	973.534818815748	183.922443019025	1256.02258964418	1163.06640910453	185.025106444853	1907.94093944708	1278.50040235583	147.159966217385	1623.17870315836	990.372740600336	173.898484511561	1999.45398569896	1264.29522400908	135.668297699878	2313.35123573519	819.19077591629	212.959646999898	1595.00619532443	1076.29890411608	140	1777.22222273059
539.726188155191	141.995349747749	897.293683905797	833.587655019391	224.857610829755	1106.07134540386	596.267163717352	150.025106444853	891.466786544954	1228.22940369803	159.001327222897	1555.94524011036	1168.05740813525	139.029756697104	2112.53066486966	1059.94028805833	147.671390230129	1555.36294131734	472.315968721423	135	730.559024518778	1167.88034980673	168.9939480558	1656.96558523742	632.960530358851	148.887839628708	906.217461585074	971.99748382272	183.917596325812	1252.22042515698	1161.78347264743	185.080902728005	1904.06343170253	1276.71641844506	147.196127329702	1618.84741540876	989.707300295611	173.971038769272	1995.40382709053	1262.75684420541	135.658046005737	2306.77333729324	819.15053034149	213.088207426049	1592.74511039425	1075.74067434538	140	1774.08598764739
539.294484337141	141.986922974495	895.125764978832	834.153667206635	225.327075002761	1105.17975943393	595.995773850099	150.045373703441	889.887765485556	1227.95094439063	159.064502673146	1553.68862664602	1167.26174066883	139.058450728946	2108.8136585317	1058.75387149915	147.792734892699	1551.89043852199	472.087481691126	135.001327222897	729.126302458586	1165.53799448881	169.031083920001	1651.1812095683	632.305293398506	148.885840763338	903.871661087732	970.421849946438	183.915317843702	1248.49547670763	1160.46729811893	185.155136679626	1900.32877292237	1274.84666081697	147.244469088175	1614.61300167023	988.921852209521	174.058901161683	1991.24535484929	1261.03196232277	135.661910440119	2300.07146620553	819.044261437238	213.244300877484	1590.51381619316	1075.19557745516	140	1771.30352871082
538.864072558567	141.971570525793	893.099284214303	834.811255806539	225.851003636362	1104.49530990206	595.737710179271	150.074233951621	888.397007108561	1227.75368146377	159.138736624767	1551.70945943626	1166.50832199668	139.102663425828	2105.13471043976	1057.67487896279	147.917596325812	1548.61343381019	471.851262128524	135.004650252251	727.650503415176	1163.31447380696	169.082229950902	1645.5394562238	631.657231553616	148.881452368949	901.577551490458	968.906558415186	183.927609120911	1245.02372912566	1159.20717198813	185.25554724831	1896.91126919145	1273.01129517544	147.308194225395	1610.67855508821	988.072328751225	174.166715666237	1987.09081436018	1259.20068769203	135.685239229338	2293.42293188565	818.909299058482	213.443230045879	1588.39521613774	1074.68529676952	140.001327222897	1768.92904629731
538.451921980193	141.947526746202	891.258316279138	835.567414891403	226.431930676008	1104.02004172089	595.518534924758	150.112160371292	887.035146711498	1227.67579518219	159.230440803457	1550.06249997543	1165.83541465632	139.16463362509	2101.67829458487	1056.77315300282	148.045025970028	1545.70736610517	471.629422128395	135.013077025505	726.211537991602	1161.33694916967	169.153809456729	1640.35328865504	631.052032065587	148.88021305943	899.422970507412	967.535975470369	183.963770233229	1241.94187412175	1158.07501633549	185.385323491309	1893.92305996725	1271.31712484278	147.388029688479	1607.19942776318	987.213333150759	174.296258281646	1983.03226430602	1257.3374717753	135.728513736177	2286.98150937948	818.775102990427	213.696143666187	1586.43724418186	1074.21823284302	140.005977475148	1766.9611804656
538.069861504866	141.915063851928	889.620151495454	836.404502401146	227.065018522782	1103.71888746653	595.351977395971	150.159532940102	885.822227783193	1227.72571548977	159.343272817222	1548.75576282025	1165.26036618607	139.244469088175	2098.58718066494	1056.08508394393	148.173988939881	1543.29411461252	471.441084053649	135.029756697104	724.886452888058	1159.68484440264	169.250896996059	1635.86126202657	630.515820465592	148.886102621199	897.483570748638	966.366498864439	184.029489498217	1239.341258552	1157.11745814802	185.543433566992	1891.42175855493	1269.84397528849	147.481493592353	1604.27702327011	986.391835192075	174.446115528558	1979.14985372734	1255.51142772951	135.787540466073	2280.88392654665	818.663495179185	214.005986985712	1584.66317687765	1073.79187237149	140.016400054859	1765.36355669692
537.726323526585	141.876872874622	888.182245757282	837.285233910715	227.736123402378	1103.53062702587	595.24597787162	150.216560804629	884.764197117929	1227.89474441723	159.476299165728	1547.76195789748	1164.77704250176	139.339687930007	2095.96387638592	1055.61168011297	148.302831682546	1541.44347263679	471.300055927228	135.057123506049	723.745418399526	1158.38376556584	169.372246465803	1632.20858925332	630.064547713443	148.898917788843	895.811210763512	965.420614582074	184.12470834005	1237.25004399506	1156.35040163267	185.723863483927	1889.4012461626	1268.63292696031	147.583009080793	1601.9425264281	985.647467850455	174.61311824891	1975.51231133526	1253.78080811145	135.856439399695	2275.24567560693	818.587609630125	214.369177428224	1583.08361304009	1073.39746803757	140.035529024564	1764.07926888387
537.428157213917	141.837760862727	886.934189210214	838.157850146531	228.420300504236	1103.38249729046	595.202755044249	150.283093342763	883.862381839024	1228.16240204415	159.623732531983	1547.03836724775	1164.375352592	139.445332480036	2093.87357463347	1055.33863092668	148.428932425177	1540.17961735404	471.21904342702	135.09668595068	722.845667593204	1157.42881809006	169.513676869888	1629.44875601833	629.704063468101	148.917596325812	894.437488383698	964.689923843415	184.244469088175	1235.64511723101	1155.76554983848	185.917596325812	1887.81904300906	1267.69152353078	147.684877040245	1600.17113024683	985.009189988321	174.790621921506	1972.17940574263	1252.19456548823	135.927093271276	2270.15365421525	818.556999560673	214.773620378674	1581.70804271054	1073.02829680303	140.064502673146	1763.04932749068
537.182573661212	141.803698947011	885.86791240319	838.965321455638	229.084388874036	1103.20732906546	595.223297112402	150.358366466975	883.122192441975	1228.50718672143	159.775007614943	1546.5438206103	1164.04677715202	139.554667519964	2092.34204340379	1055.2447961341	148.548690044816	1539.48349943284	471.206749450037	135.146906347334	722.222474360053	1156.79330241422	169.665412754981	1627.55335543035	629.434411398515	148.937515850987	893.371506234376	964.147856363221	184.379613215047	1234.46632845216	1155.33992936642	186.112570155904	1886.61370427824	1267.00342681002	147.777532478147	1598.89793827802	984.498665433788	174.97202095853	1969.20904682509	1250.79354408984	135.99200400072	2265.67404144527	818.579001832417	215.201213163101	1580.56003236298	1072.68414768827	140.103207600203	1762.23137614554
536.995489936948	141.78045807117	884.983118423122	839.65370311461	229.689666986076	1102.95721735395	595.307155477585	150.439442918267	882.554543004708	1228.90993695669	159.917770049098	1546.25044212009	1163.78733399796	139.660312069993	2091.36845957204	1055.30640483509	148.658984847096	1539.31163790869	471.268376081476	135.202962588463	721.889471167422	1156.44001523674	169.814932899984	1626.43873770862	629.250549549486	148.95462629656	892.60166718388	963.762854808788	184.518506407647	1233.63678836234	1155.04829554049	186.297295350767	1885.72377789387	1266.54233334563	147.853290093628	1598.04073525928	984.127112130944	175.149162111768	1966.65903726832	1249.60546141678	136.045547426727	2261.85200531842	818.659366610216	215.632403786447	1579.67995832893	1072.36960929824	140.148210852555	1761.60858467322
536.874360655853	141.772205242399	884.28820205919	840.182906145855	230.197405780373	1102.61225098356	595.453510039865	150.523085901974	882.175794285718	1229.35908189145	160.040099008327	1546.14623031845	1163.60184681351	139.755530911825	2090.91803511115	1055.50605267615	148.755530911825	1539.59717520912	471.404837131423	135.258785202002	721.834880390664	1156.33453514058	169.94926375371	1625.98644944117	629.143589117416	148.964470975436	892.098725629528	963.504982332365	184.649348015681	1233.07881213116	1154.86677479406	186.460687766454	1885.09624416649	1266.27617118549	147.90602024649	1597.51590623417	983.897764834477	175.314327493379	1964.57681480252	1248.64576311103	136.084682156298	2258.70808811424	818.803471168482	216.04596277356	1579.11800037145	1072.09655742639	140.195235687953	1761.18782458289
536.824953532345	141.78045807117	883.797097099886	840.531763249513	230.575057784885	1102.1822876948	595.660319907255	150.602747420575	882.001539816741	1229.85109807279	160.132749639055	1546.23653624138	1163.50420575817	139.83536637491	2090.94163151256	1055.83380372425	148.83536637491	1540.26776487357	471.614551536831	135.307923078166	722.027138513021	1156.45171067566	170.05880373774	1626.0766831627	629.102179172164	148.964470975436	891.821357196449	963.351440898309	184.762459646186	1232.73022370202	1154.77711548984	186.593699125428	1884.69344900582	1266.17405380871	147.934714278332	1597.25236357673	983.803553474797	175.460055678701	1962.997730157	1247.91355011578	136.107919903653	2256.24508629956	819.011946264371	216.423631933528	1578.9238433487	1071.87892547809	140.24008603481	1760.99700819048
536.848730716474	141.803698947011	883.523068042409	840.700521594501	230.802948184009	1101.70470217157	595.92244881846	150.672606046976	882.042896110731	1230.38522956294	160.190850596762	1546.53501057485	1163.50871001199	139.897336574172	2091.37630373102	1056.28154048651	148.897336574172	1541.25190359668	471.89137935414	135.345277023616	722.421886507426	1156.77229184822	170.137399891306	1626.60491148864	629.113762896376	148.954626296559	891.72139311216	963.291372564423	184.851962870731	1232.54510153017	1154.77164375033	186.692429930629	1884.48747370771	1266.21226040253	147.941549271054	1597.19519877344	983.83453380521	175.582213614417	1961.93760836963	1247.39935987169	136.118459717673	2254.44814738194	819.286613409432	216.750678419177	1579.13348682381	1071.7367954412	140.279058022811	1761.07527828109
536.942375954315	141.837760862727	883.474588565642	840.708975637198	230.876917577995	1101.23284404762	596.229917308931	150.726836879983	882.300223662077	1230.96218176958	160.215957041615	1547.05538440965	1163.62824090929	139.940222048158	2092.15489210161	1056.84365377653	148.941549271054	1542.48454243054	472.22561682792	135.370295555091	722.968912627275	1157.2845641069	170.185222892853	1627.49224194012	629.166293463772	148.937515850987	891.754698293333	963.318132221175	184.916442826201	1232.5007947566	1154.84715468413	186.755154948141	1884.46350187179	1266.36946271991	147.932865598736	1597.31158954283	983.976135650469	175.6787287491	1961.3913109741	1247.08400134018	136.118547631051	2253.28685708187	819.625552572981	217.01824293502	1579.7614711578	1071.69050218893	140.311241300346	1761.46248615783
537.09531939426	141.876872874622	883.646542408579	840.590934818792	230.809891941529	1100.8252529701	596.567551815636	150.760852806549	882.758129930496	1231.57841661571	160.21365236706	1547.80114688695	1163.86473230853	139.965593050646	2093.21850793179	1057.50810284906	148.970243302896	1543.91276126782	472.602861747595	135.385240918955	723.621037834411	1157.97479267402	170.206915336062	1628.68855904533	629.25036108368	148.916269102915	891.890311099056	963.428545595455	184.958493500288	1232.59350811547	1155.00804550575	186.78517620288	1884.62821940196	1266.6310867365	147.916269102915	1597.5922226168	984.216593107828	175.750880659575	1961.33051137482	1246.94995413357	136.114159236662	2252.71647787001	820.029207888932	217.22305393704	1580.79328138991	1071.76600604985	140.338889763857	1762.18970752329
537.292143941775	141.915063851928	884.023045117232	840.390036850956	230.630091274631	1100.53565537442	596.917001456257	150.774209448794	883.388480313588	1232.22521283711	160.193908465056	1548.76153940122	1164.20888995671	139.97384594899	2094.50964762772	1058.25671586555	148.986922974495	1545.48803418453	473.005977475148	135.394416948238	724.338047457011	1158.82192136924	170.209800280959	1630.15638789216	629.357842972449	148.89559475949	892.113029957751	963.617420733538	184.983599945141	1232.83705078633	1155.25775846807	186.7879938061	1885.00340390477	1266.98177544096	147.898917788843	1598.04722989342	984.551407510982	175.802545447401	1961.71306147396	1246.98619778047	136.112160371292	2252.68355041397	820.501812998665	217.368359006959	1582.1934219433	1071.99219790726	140.366798047403	1763.27689082383
537.512990375826	141.947526746202	884.578466904374	840.149980512232	230.376886111445	1100.40728375153	597.255988436521	150.76888755407	884.151906278163	1232.88392591534	160.167339822261	1549.91133456338	1164.64114970414	139.966920273543	2095.97258839458	1059.06569351373	148.995349747749	1547.16129459575	473.417519975955	135.403298961404	725.08583837563	1159.79561704516	170.201635365566	1631.85736196259	629.482820815251	148.879003070842	892.424147927715	963.876809644447	184.998672777103	1233.25564120312	1155.59847531873	186.770082553127	1885.63168651255	1267.40995636182	147.886102621199	1598.70158014594	984.981852440465	175.840033782615	1962.48200663734	1247.18747527416	136.119607655062	2253.12167973665	821.047981490065	217.463811210342	1583.90447950904	1072.39686767039	140.400844856123	1764.72440054
537.739056387914	141.971570525793	885.276142222847	839.910599978031	230.092838671753	1100.46297900334	597.563772317749	150.750163027951	885.000325061017	1233.53195944168	160.142603828496	1551.20683084968	1165.13855195522	139.946199523305	2097.55962438443	1059.91134070552	148.998672777103	1548.88712727875	473.823194369837	135.415328380752	725.841903451573	1160.86048790725	170.18991379323	1633.74969897005	629.61917327197	148.868183640082	892.840282074665	964.191399908625	185.010422579711	1233.87320882457	1156.02423505822	186.739358656296	1886.56426483638	1267.89751543495	147.88021305943	1599.58366617085	985.507479012284	175.868375343444	1963.57012299948	1247.5478605295	136.143386877018	2253.95369685965	821.668251040709	217.520934716391	1585.85556556148	1072.99620177833	140.446130646185	1766.5116197299
537.953919568183	141.986922974495	886.0794452525	839.705244585223	229.820370149099	1100.71261760872	597.824474741192	150.725330371578	885.891402569703	1234.14710989836	160.125659599262	1552.60384595952	1165.68171951203	139.915063851928	2099.22054377785	1060.77788961307	149	1550.61561740963	474.213228126768	135.430490147178	726.587679395787	1161.98500578227	170.179966415029	1635.77397401096	629.76309190551	148.864508139715	893.381175351311	964.544437841657	185.023779221956	1234.70318589885	1156.52481698856	186.702813176817	1887.84317585782	1268.42854390135	147.881452368949	1600.70877074484	986.120829657523	175.892940313696	1964.88835076071	1248.05389479688	136.188412847046	2255.07472674919	822.354251723123	217.551925160792	1587.95740909988	1073.78768072486	140.505272814309	1768.58510645191
538.145982053417	141.994022524852	886.952273128984	839.555970801368	229.593996089994	1101.15086346306	598.027325657568	150.700420588885	886.789031547337	1234.7077957478	160.117932698753	1554.05718719193	1166.25881986662	139.876872874622	2100.90801025617	1061.6554346245	149	1552.30131866658	474.583418865404	135.446397845072	727.310146239223	1163.14410408735	170.176998359997	1637.8671434291	629.911823998351	148.865407288412	894.061615345012	964.921485614948	185.04072345119	1235.73833707055	1157.08434919508	186.665760488393	1889.48576954574	1268.98836807289	147.887167986235	1602.07078571941	986.797862717259	175.916269102915	1966.32717579654	1248.6731773321	136.254891667886	2256.35398331349	823.083216562057	217.566603463712	1590.1079517906	1074.74137629851	140.577381376884	1770.85807465632
538.309190380352	141.994022524852	887.860550264798	839.472328858694	229.437734427869	1101.75950440801	598.167011454095	150.680327119226	887.667113635552	1235.19441842118	160.117482266015	1555.52593036761	1166.86231902787	139.837760862727	2102.57495046003	1062.53856414718	149	1553.90233516853	474.932940067789	135.45734948153	727.996132888933	1164.31591189145	170.183745439341	1639.95630318589	630.06263953787	148.867920103533	894.879481550676	965.310024708503	185.061156926116	1236.94511984804	1157.68349019988	186.633551723836	1891.46553418953	1269.56311191415	147.893817103856	1603.6309421813	987.497197839952	175.937515850987	1967.75116435214	1249.3566573493	136.33836070711	2257.63200572255	823.820468559645	217.570732525302	1592.18892342064	1075.80393111507	140.656706364987	1773.20739668843
538.440160815928	141.988250197392	888.770655495164	839.45150663336	229.362407586362	1102.50623254784	598.24235649209	150.665760488393	888.504744880626	1235.5888018461	160.119874853948	1556.96864213809	1167.48404489499	139.803698947011	2104.1651881107	1063.41696224511	149	1555.37462024444	475.260334286851	135.459436260278	728.63038105325	1165.47315486855	170.201899657163	1641.9545567676	630.213706773369	148.867691283117	895.811501346996	965.701164396545	185.082403674188	1238.26933471332	1158.29977536605	186.609167938977	1893.71048401625	1270.13908050645	147.898119622694	1605.32188799839	988.164309391982	175.954626296559	1969.01132483448	1250.03903817426	136.430259648074	2258.73504409883	824.519619890547	217.566603463712	1594.07569311786	1076.90258583103	140.73561138665	1775.48942402809
538.537909697909	141.976220778044	889.648082033925	839.479601195988	229.367254279576	1103.34574960118	598.255012796108	150.65471055853	889.282498782283	1235.87813370706	160.11978694057	1558.34214340056	1168.10358176118	139.78045807117	2105.60802057151	1064.26390706799	149	1556.66771140013	475.561147445264	135.450249931173	729.191594053355	1166.56660541697	170.23139206267	1643.75220286398	630.360558714395	148.861525233094	896.809591668447	966.084377395238	185.101082211157	1239.63278251823	1158.9083540386	186.594846796779	1896.09843302311	1270.69796478018	147.898119622694	1607.04581258654	988.736142243572	175.964470975436	1969.9561419906	1250.64678364258	136.517811272503	2259.49523978051	825.130037735111	217.551925160792	1595.64463349137	1077.95862877197	140.803183097375	1777.55391781214
538.602850385938	141.95927654881	890.457534003988	839.536003704715	229.440186633265	1104.2223076766	598.208928701954	150.644782977034	889.98070057843	1236.05450435777	160.1138973788	1559.59952992258	1168.6921716044	139.772205242399	2106.82611310656	1065.03955791781	149	1557.72449632606	475.827042567019	135.429718173473	729.657988901942	1167.52796121717	170.26801494858	1645.21866119466	630.494480049548	148.848531313793	897.808738359888	966.440896627631	185.113897378801	1240.94534456095	1159.47733154209	186.590456364562	1898.48052368173	1271.21136361395	147.893817103855	1608.69140993091	989.149570503259	175.964470975436	1970.45126367081	1251.10621532395	136.591159144597	2259.77162595293	825.601680662419	217.522261939288	1596.78457119669	1078.89422279557	140.851962870731	1779.26458668331
538.635280094193	141.938843073884	891.164184811226	839.59668203205	229.560377796225	1105.07333769831	598.110001520018	150.63249942797	890.57798403193	1236.11785356396	160.101082211157	1560.69125117906	1169.20767199977	139.779130848273	2107.7509647795	1065.69116213282	149	1558.49231429714	476.046560737139	135.403123338233	730.009722448952	1168.27222140394	170.305799737578	1646.21936842271	630.604154891159	148.830573398992	898.739111780827	966.741021826168	185.118459717673	1242.10905004666	1159.97095331367	186.593304192406	1900.69895870889	1271.64003696936	147.887167986235	1610.14418637247	989.34940236742	175.953299073663	1970.40088528577	1251.35037981908	136.640573509014	2259.47632717752	825.888914186431	217.471115908387	1597.41635641381	1079.64698787196	140.875719375012	1780.52640749531
538.636159318089	141.917596325812	891.73903930432	839.637136769746	229.702790459141	1105.83792926806	597.96652958814	150.616257723363	891.056415121219	1236.08103875474	160.082403674188	1561.57542273045	1169.6060854221	139.797721471864	2108.3340088469	1066.16538023943	149	1558.92980087105	476.206936739135	135.37576593612	730.234718492416	1168.71437480765	170.338106715335	1646.63945678221	630.677504491567	148.811863862404	899.540396898768	966.951616684072	185.1138973788	1243.03622324962	1160.35726488551	186.598359026186	1902.62111950911	1271.94934416816	147.881452368949	1611.31097128086	989.295969996394	175.931538375839	1969.7710214208	1251.3306396035	136.662049077502	2258.59349789297	825.961665664242	217.390736536966	1597.51005806792	1080.17410804271	140.872230129319	1781.30219433509
538.605975680919	141.898917788843	892.167168811186	839.634560947963	229.838885845226	1106.4686664152	597.787271047158	150.595303057776	891.407920522266	1235.96283898168	160.061156926116	1562.22773550064	1169.8505613157	139.820033584971	2108.56632529714	1066.42063674597	149	1559.02366574168	476.297622563026	135.35307856475	730.332074674163	1168.78911386916	170.357218529586	1646.4119428111	630.704441419528	148.797809385242	900.172316745409	967.039387280405	185.09975498826	1243.66225816036	1160.61293167818	186.599149581655	1904.1615750355	1272.11258873287	147.88021305943	1612.13775026648	988.9750321173	175.899869048056	1968.60011773663	1251.02841329882	136.655399959881	2257.19110346118	825.808227803438	217.27631023936	1597.097267624	1080.46155192559	140.842745542007	1781.62497308185
538.547467638375	141.884775398303	892.443399997321	839.572359424977	229.940377840995	1106.92976802318	597.582996662939	150.570826000902	891.629163960795	1235.79207796924	160.04072345119	1562.63792903893	1169.91736470501	139.836693597807	2108.48401976702	1066.43513295988	148.998672777103	1558.79828330931	476.311850433209	135.33836070711	730.315658273076	1168.46346589207	170.356677054985	1645.54010318941	630.678366560007	148.793451990471	900.618727354617	966.981689888731	185.076426199041	1243.95410985284	1160.72719209857	186.58783305633	1905.2884519697	1272.12161934663	147.884775398303	1612.61202946477	988.402045945595	175.857411289132	1967.00253967902	1250.46463694889	136.623906255269	2255.42252287396	825.443173574333	217.125579330774	1596.27098271153	1080.53007767414	140.791604110765	1781.59891120149
538.466927099463	141.876890030076	892.575611789068	839.442173663405	229.983035515651	1107.2035211161	597.367861684126	150.543607290278	891.723390119389	1235.60523673454	160.023779221956	1562.81341284484	1169.80633907207	139.837484153277	2108.1596781703	1066.21726994378	148.994022524852	1558.3125976262	476.250949802733	135.330745528313	730.209020818109	1167.74885933206	170.332112084733	1644.09821124364	630.601424682902	148.7995643232	900.889471375012	966.773677497194	185.043429648361	1243.91963792859	1160.70939218207	186.556316614094	1906.02933024132	1271.99023816388	147.892940313696	1612.76965893096	987.622351729685	175.802545447401	1965.14667543284	1249.69860049431	136.573252581333	2253.49959322198	824.902087984563	216.939438999636	1595.16893345349	1080.42853307789	140.724792025463	1781.37441003912
538.375074634884	141.873025595694	892.580496707303	839.245975641422	229.94617926819	1107.28589210576	597.158539692434	150.51437951198	891.699156010441	1235.4428891699	160.010422579711	1562.7718675131	1169.54180294519	139.815889671792	2107.69034378596	1065.80434124509	148.982272722244	1557.65653665127	476.125208879686	135.325807931178	730.044787095881	1166.70077061211	170.280983209287	1642.22104868476	630.483594353208	148.814665701097	901.015102350841	966.431942331304	184.999216951478	1243.60179234967	1160.58649841032	186.498762334072	1906.45603365559	1271.75464669855	147.899869048056	1612.68038425562	986.705708583772	175.732175930161	1963.23053304863	1248.82419681856	136.510096789847	2251.66639857546	824.238639164622	216.723656436355	1593.95026003768	1080.2284243215	140.64882099676	1781.1241367428
538.286947477323	141.870488314637	892.480061041385	838.997272896398	229.819295836175	1107.184489233	596.974841152454	150.484293265124	891.568877771869	1235.34524098712	159.998672777103	1562.53941992424	1169.16904785547	139.769559196543	2107.1807227651	1065.26015235743	148.958493500288	1556.93726170132	475.953843248037	135.318345657877	729.859826984458	1165.41321198048	170.203136311749	1640.08584975115	630.344346048344	148.833390227216	901.037867992767	965.99257380006	184.942876493951	1243.06415430617	1160.40113707655	186.412519952465	1906.6575140188	1271.46451043358	147.898663797069	1612.42731244236	985.734280285003	175.642584792237	1961.44370186516	1247.94920706829	136.440682227785	2250.15342176181	823.51384481454	216.484995907215	1592.76607518851	1080.00841502842	140.570193913149	1781.00652010114
538.220966575669	141.865123072014	892.300231110692	838.717960477832	229.600191991802	1106.9139912373	596.837226198916	150.451742457471	891.350050056639	1235.34882580062	159.983599945141	1562.14814589345	1168.74813693973	139.700773663322	2106.72979381238	1064.66257555954	148.917770049098	1556.26648349274	475.760429643254	135.303360739293	729.689209635643	1164.00393950205	170.102054100593	1637.88614949949	630.210971711019	148.847116177518	901.003891479048	965.506463240746	184.873013177841	1242.38736141399	1160.20614321429	186.298687769366	1906.72957215214	1271.18163503627	147.883024073056	1612.09847887432	984.790738523566	175.531865749665	1959.9439535345	1247.18372599472	136.369854411722	2249.14538875673	822.788003809285	216.232706867713	1591.74082250576	1079.84242602907	140.494308759997	1781.13960358765
538.19288937601	141.853906925811	892.072811155041	838.433291719832	229.299206081563	1106.50003729398	596.762368091271	150.416096973593	891.069379222947	1235.4741287638	159.958493500288	1561.63963540371	1168.34176006056	139.615736532702	2106.42920822942	1064.09096048844	148.856613122982	1555.75267358946	475.571256370895	135.27746373897	729.566778711776	1162.59692287567	169.982272722244	1635.818934753	630.111190392372	148.849233955885	900.951993607612	965.033457204749	184.790609503653	1241.65380048664	1160.05639376072	186.16435691564	1906.75132916002	1270.96995223838	147.849233955885	1611.77146020787	983.951642479194	175.400573708894	1958.83761587553	1246.62298535102	136.301771879731	2248.7584777614	822.116662934006	215.977003826566	1590.95740475421	1079.79167626181	140.424085731964	1781.58571511785
538.215697679991	141.836149423432	891.837368725218	838.168418852818	228.936186728205	1105.97773126803	596.759768896957	150.376267468017	890.761452972287	1235.72652619176	159.917770049098	1561.06733932983	1168.00338717281	139.521846592455	2106.33357321268	1063.61132897517	148.774209448794	1555.47314173186	475.40855853889	135.241586843051	729.514832003345	1161.30279471568	169.850461924548	1634.04437934359	630.070839430097	148.835223789185	900.907084653747	964.632693613907	184.69823368249	1240.94161341632	1160.00002629091	186.019128969705	1906.77034097777	1270.88709794927	147.79798867075	1611.50222663267	983.277037013049	175.252626392888	1958.18857541375	1246.33579048519	136.237807552701	2249.04850049651	821.542873013983	215.728513736177	1590.46657353404	1079.89627029839	140.360934678079	1782.36338616815
538.298306501866	141.813981640771	891.637459379177	837.947244732935	228.53879638391	1105.39330265167	596.833347354135	150.331269022839	890.468175501837	1236.09899979615	159.856613122982	1560.49540405951	1167.77134812078	139.42795497352	2106.46439321571	1063.268296071	148.673127237637	1555.46679389721	475.289241303642	135.198833526873	729.54252735242	1160.21050219095	169.713306514452	1632.67594262793	630.107530374157	148.804230703533	900.882547749315	964.353824200434	184.599953310026	1240.32190876117	1160.07462629167	185.87636653555	1906.81287369709	1270.97816605765	147.734306881429	1611.32913908283	982.805226017338	175.095887784531	1958.0039943174	1246.35699770996	136.179966415029	2249.99534354463	821.093900616449	215.495775868845	1590.27446031546	1080.1722578014	140.304827848141	1783.43728980564
538.443435193566	141.791949144403	891.518269172983	837.791882512612	228.139519673289	1104.80229184654	596.982317762541	150.282564423958	890.233975386407	1236.57707293481	159.775536671691	1559.99375946786	1167.66768380279	139.341015152904	2106.81225825118	1063.08526132955	148.560557081733	1555.73215742306	475.223188519175	135.153555464955	729.649241557746	1159.3822002188	169.576957136592	1631.77317143001	630.229503209766	148.76271363796	900.882078868686	964.229000366264	184.50192706728	1239.8522729589	1160.29776798898	185.746663216398	1906.88377341812	1271.26490535451	147.665760488393	1611.27066740034	982.546951261446	174.939641240033	1958.24898731378	1246.6780429825	136.129104600526	2251.51660069451	820.77737194773	215.284315749205	1590.35545405348	1080.60595120254	140.254751781934	1784.73798927191
538.650490346006	141.77580781892	891.524060258822	837.722370375005	227.771168173278	1104.27089048082	597.201643202828	150.232089897587	890.105574310008	1237.14337678383	159.677777489888	1559.63961181962	1167.70067255929	139.266496846942	2107.33813998161	1063.06784657038	148.445420393414	1556.22295084532	475.214242988996	135.110833148395	729.81911335425	1158.85977553055	169.446747616311	1631.34175141899	630.434459438763	148.719213231676	900.905979239665	964.269177347286	184.409276436551	1239.569962549	1160.66710134799	185.637587043788	1906.97535487218	1271.74381052947	147.600730796327	1611.32593959415	982.480999863507	174.794074533449	1958.83556911537	1247.24324671712	136.086263370969	2253.45769417715	820.576001613353	215.095493117547	1590.64514148953	1081.15178872715	140.209373340893	1786.1561390796
538.91348158196	141.770878019502	891.686288313352	837.751584571036	227.460969741488	1103.86319875997	597.483156738184	150.183050304197	890.120656739076	1237.77702674645	159.570979661445	1559.49778487493	1167.87797155687	139.209204355207	2108.01587068174	1063.21554651568	148.339949787868	1556.88144758811	475.263349865541	135.074233951621	730.037561568574	1158.67526644076	169.32819998526	1631.37090923721	630.709811661696	148.683912006441	900.957905185216	964.463716038372	184.326872762363	1239.49345069082	1161.15989676304	185.55186514742	1907.08657288026	1272.38615349518	147.545887672272	1611.48823641306	982.555343621542	174.66656069237	1959.63765175089	1247.95451912842	136.052473253798	2255.60812406801	820.451526696104	214.923568238738	1591.05137429941	1081.73527611593	140.167697855495	1787.55787390568
539.21885630425	141.78045807117	892.015013862349	837.880847012857	227.227998246567	1103.62839852089	597.809908328526	150.137938458618	890.298622883177	1238.44843032475	159.46454936312	1559.60448200458	1168.20033880439	139.171018185075	2108.8205584149	1063.51779179011	148.254220025413	1557.63501126899	475.367521478462	135.045373703441	730.285454951024	1158.84160419855	169.225790551206	1631.82480150428	631.036756993228	148.665233469473	901.046360665662	964.788554932392	184.257284255818	1239.62877908194	1161.74248091148	185.487471067501	1907.23089499819	1273.14840890123	147.505272814309	1611.75300863084	982.701884406992	174.562287727131	1960.49802644534	1248.69461707875	136.028429474207	2257.71663417877	820.35383936561	214.760443021937	1591.45870724793	1082.27179661114	140.129511685363	1788.79532400026
539.546683938537	141.803698947011	892.491206719501	838.096653472789	227.08005202122	1103.58705911885	598.15760400265	150.098803729047	890.631158895078	1239.11855656397	159.367596213553	1559.95453573922	1168.66570412221	139.152604205742	2109.73576515476	1063.95677255783	148.195860130816	1558.41167697158	475.522293535259	135.025106444853	730.54458939122	1159.35048267078	169.143386877018	1632.65276075516	631.38963922789	148.665145556095	901.182997901505	965.205140032133	184.200689668575	1239.9706168701	1162.36691507115	185.438228122505	1907.4374042259	1273.9709998765	147.477624350798	1612.12177800593	982.849717781256	174.480949417978	1961.24771321694	1249.34814390556	136.011749802608	2259.52179256406	820.232469557819	214.595026082287	1591.74249588594	1082.68333453843	140.095480699693	1789.72308972757
539.871994067994	141.837760862727	893.069245167009	838.3700090358	227.012052374237	1103.72600136042	598.49451118711	150.067134401264	891.081253768566	1239.73894626199	159.288274700219	1560.49590208696	1169.26580190417	139.152070549336	2110.74923347196	1064.50395139085	148.167166098974	1559.14433958258	475.721759149885	135.011749802608	730.798574010694	1160.16263918727	169.082229950902	1633.77848122949	631.737371397821	148.680327119226	901.376557087942	965.667085673463	184.155403878512	1240.50346246827	1162.98069524838	185.395663498667	1907.74631724408	1274.78708015825	147.45814764768	1612.59924418778	982.939763511219	174.417794647578	1961.73411601201	1249.82694128649	136	2260.7977466149	820.047151658351	214.416079043144	1591.78790704773	1082.91865511369	140.065807178367	1790.22511838732
