Light	Light	Light	Light	Light	Light	Light	Light	Light	Light	Light	Light	Light	Light	Light	Light	Light	Light	Light	Light	Light	Light	Light	Light	Light	Light	Light	Light	Light	Light	Light	Light	Light	Light	Light	Light	Light	Light	Light	Light	Light	Light	Light	Light	Light	Light	Light	Light
Optode1-730nm	Optode1-Ambient	Optode1-850nm	Optode2-730nm	Optode2-Ambient	Optode2-850nm	Optode3-730nm	Optode3-Ambient	Optode3-850nm	Optode4-730nm	Optode4-Ambient	Optode4-850nm	Optode5-730nm	Optode5-Ambient	Optode5-850nm	Optode6-730nm	Optode6-Ambient	Optode6-850nm	Optode7-730nm	Optode7-Ambient	Optode7-850nm	Optode8-730nm	Optode8-Ambient	Optode8-850nm	Optode9-730nm	Optode9-Ambient	Optode9-850nm	Optode10-730nm	Optode10-Ambient	Optode10-850nm	Optode11-730nm	Optode11-Ambient	Optode11-850nm	Optode12-730nm	Optode12-Ambient	Optode12-850nm	Optode13-730nm	Optode13-Ambient	Optode13-850nm	Optode14-730nm	Optode14-Ambient	Optode14-850nm	Optode15-730nm	Optode15-Ambient	Optode15-850nm	Optode16-730nm	Optode16-Ambient	Optode16-850nm
291.581092787776	141.241573773882	584.911142678132	1492.3984532073	233.686409603201	2150.2967347753	675.521687485812	141.082403674188	1307.92676404621	1042.44748007217	163.897764289233	1507.01188274107	1096.79233511217	130.16051039176	2490.24603079317	1104.94184590665	152.517723359125	1678.75844163056	653.948814144761	128.261592602917	1189.79872306005	1213.37309681713	171.630293515028	1708.5555779845	898.350355112415	141.893469370443	1601.4944384513	1536.90327442455	186.483039434282	2225.93675148828	1330.76365455797	139.56659660808	2414.42072850355	817.178708536134	151.314760770662	1167.47153590036	632.060456045967	128.860734318485	1415.14129758881	975.31671278449	140.106709915065	1917.83272913921	343.148626199388	127	893.479222396437	679.768275620822	182.637001498063	1137.9687095863
291.231777536918	141.293362261932	583.787017104562	1496.47287251119	234.05644733261	2158.22021998358	675.80736718523	141.101082211157	1308.4424215266	1043.29534379784	163.960771982398	1509.99866692992	1096.29316628737	130.179704557167	2488.65081016497	1104.2736153697	152.590897286735	1676.21055264456	652.822495538145	128.293601935968	1187.97034340528	1212.8182621684	171.686002022744	1706.61455619311	896.726841176395	141.923747524246	1600.27020609598	1534.39621606818	186.506912397876	2222.42585446866	1329.15142323771	139.494727185691	2412.87590330539	816.585823087832	151.334766530527	1166.2681166802	631.055382939935	128.847116177518	1413.46937985381	974.160200091986	140.090118156844	1915.19895335696	342.939611666725	127	893.066140509818	679.12888674898	182.583032035682	1136.91086603396
290.951833500222	141.352388991828	582.977368106109	1497.41139169116	234.500009480853	2160.10888951696	675.78305699601	141.113897378801	1308.15967632721	1043.28056820892	163.993506675217	1511.16736637919	1095.93222302715	130.195235687953	2486.8544399417	1103.90837561005	152.630822571776	1674.31110417625	651.751778643905	128.313695405626	1186.29499052673	1211.61871774756	171.695498968208	1703.8453764466	895.03675623818	141.94069175348	1598.85201649895	1531.69695721871	186.476484058299	2218.23962272579	1327.25629375009	139.40989136885	2409.74673021252	815.742678279182	151.333527221008	1164.16826688038	630.145554483808	128.820562641719	1411.63911330333	972.936166380428	140.060358759967	1911.9447875189	342.721140269244	127	892.34314016465	678.406940354838	182.594525146742	1135.29476245579
290.758629715084	141.411446721342	582.502556220581	1494.9523354363	234.979302938899	2155.37555192866	675.416191003505	141.118459717673	1307.00236096463	1042.33444998186	163.990856063331	1510.29765435102	1095.69594245621	130.207265107301	2484.79211474882	1103.80966240455	152.630822571776	1673.03754257446	650.779751583957	128.321162486102	1184.79782489531	1209.75624210521	171.65047299818	1700.24685942096	893.362290032809	141.942876493951	1597.25559884677	1528.90546447054	186.390119704782	2213.52834096988	1325.17184772471	139.322222510112	2405.14187154643	814.680236036594	151.313695405626	1161.25686017576	629.349547522974	128.778859701044	1409.66111115317	971.662220808242	140.021246748072	1908.11809539433	342.507054624901	127	891.382380807641	677.658957229585	182.670615018869	1133.26986615909
290.654730813646	141.462543908156	582.335963421883	1489.31225507743	235.458951024984	2144.34898229866	674.725185985754	141.113897378801	1305.01365276993	1040.51831494655	163.951381532077	1507.44942143052	1095.54910119014	130.215777756107	2482.39413938623	1103.89025846537	152.590897286735	1672.25252486925	649.927678220114	128.316859967263	1183.44846288426	1207.28883622125	171.549390787024	1695.9019538929	891.775730164082	141.932865598736	1595.49232713001	1526.12365314491	186.254549541537	2208.48984073358	1323.01182683088	139.244919520912	2399.35249376045	813.464042954455	151.281237201061	1157.74449382123	628.671781641754	128.723581967302	1407.54828263801	970.378290267248	139.978753251928	1903.85904789226	342.31795692827	127	890.303860140702	676.960955094762	182.80520569263	1131.05974374564
290.631566523988	141.498420804075	582.41731346385	1481.1498176263	235.908489607341	2128.20635928787	673.777530385891	141.101082211157	1302.34875484294	1038.01653647947	163.881269135098	1502.95118803956	1095.44585688033	130.220340094979	2479.6177769072	1104.03973892388	152.517723359125	1671.75779006345	649.19409723411	128.302743769168	1182.17028478985	1204.34728059289	171.398115704063	1690.97330829508	890.336859860636	141.916269102915	1593.58533372063	1523.44841280658	186.083354933401	2203.35737115675	1320.90054993103	139.188760580458	2392.81576453972	812.187366488557	151.243686039653	1153.94110698068	628.103955066179	128.65964042752	1405.33504237318	969.145387096838	139.939641240033	1899.39756109504	342.179229814067	127	889.265737643178	676.396724699385	182.988452437789	1128.92898408251
290.673796483583	141.515973933763	582.674069670716	1471.43325650478	236.305258025763	2108.73811976474	672.679014948314	141.082403674188	1299.25596812459	1035.10561002687	163.792387159287	1497.33989173614	1095.34828305397	130.220080274945	2476.50112854668	1104.16194146051	152.423042863408	1671.3825645449	648.557980911881	128.281237201061	1180.86749608231	1201.12261320977	171.210329337706	1685.70787515427	889.091910973952	141.898917788843	1591.56374447276	1520.96832224655	185.892940313696	2198.35635538629	1318.95961355269	139.159786931877	2386.02057453625	810.960520054055	151.209390496348	1150.19386254498	627.634128304241	128.595652829015	1403.08849023375	968.042969352016	139.909881843156	1895.02596293674	342.116996182059	127	888.435222085788	676.044910766746	183.208418606911	1127.13902027569
290.764772158002	141.51717918475	583.04084807452	1461.26121940779	236.635532837399	2087.99869756152	671.555346862657	141.062484149013	1296.03110580416	1032.10291641646	163.701289512958	1491.25544980052	1095.24595676428	130.213914224921	2473.18429569807	1104.21310687142	152.320895287215	1671.05031980271	647.993111261549	128.255964899008	1179.45528171906	1197.85153133764	171.004650252251	1680.41597230835	888.072826176767	141.886102621199	1589.46794327398	1518.75873708579	185.702616735854	2193.6786189939	1317.29486581679	139.160766421361	2379.44219890043	809.895119474514	151.18373987712	1146.83227649623	627.252319717219	128.540779121198	1400.9310837809	967.155571977304	139.893290084935	1891.0812432863	342.153852429521	127	887.966145352558	675.966115472443	183.453847166669	1125.91621480541
290.893221178104	141.507009821818	583.479963118142	1451.66887729589	236.893346149965	2067.94981570894	670.529252149734	141.045373703441	1292.97452881483	1029.31271111777	163.623553246474	1485.33176620504	1095.16403915452	130.200951305239	2469.91076232082	1104.21423723748	152.225790551206	1670.81230894473	647.475637240434	128.229380779446	1177.88503153335	1194.78428674778	170.802747687799	1675.44126255639	887.293905224412	141.881540282327	1587.35325108146	1516.87374763388	185.528977567213	2189.4655878219	1315.97998275498	139.187962414309	2373.48360814814	809.083835159228	151.169955519814	1144.11504129657	626.95761556127	128.504233641719	1399.02632166028	966.561039345387	139.89075287345	1887.88815436601	342.300311818887	127	887.964987777733	676.190534694266	183.713418186539	1125.41569636545
291.053461450007	141.493435098323	583.984007504797	1443.47448396455	237.083521801056	2050.17392437455	669.69902171812	141.035529024564	1290.34941867399	1026.9793873085	163.571792283275	1480.10834116401	1095.15820078855	130.182271089583	2467.00233814958	1104.25001554328	152.149364352166	1670.84359419053	646.992064731489	128.205770694799	1176.16910849319	1192.15712395832	170.625663517893	1671.12996636862	886.752736315313	141.8861026212	1585.28931476178	1515.34905355428	185.38610653983	2185.80672834816	1315.05289565265	139.233505033862	2368.44057539998	808.590857708413	151.16743329786	1142.19768434167	626.756990486707	128.488676318488	1397.55795930568	966.312352566701	139.90024501174	1885.71010600657	342.553996335901	127	888.468831409453	676.714897009132	183.977548000941	1125.69921501982
291.246172274756	141.483248530311	584.566823921398	1437.19791977599	237.221130788391	2035.71720012539	669.12953638444	141.035529024564	1288.34679641031	1025.26041663418	163.552663313569	1475.9631508884	1095.30098027557	130.159271082241	2464.80547345104	1104.43867880475	152.09863000576	1671.39130582285	646.542396245493	128.187700556448	1174.38692827814	1190.16257263866	170.491332664166	1667.78827331001	886.431745690775	141.897590565946	1583.35964269935	1514.20139006269	185.285024328674	2182.75006540176	1314.5118361636	139.288453985728	2364.50108373555	808.441874127106	151.172260194368	1141.12797711009	626.663379752099	128.494570617858	1396.70524724052	966.429450040774	139.917596325812	1884.72595793112	342.898684052184	127	889.448513926533	677.505119820956	184.238758811913	1126.74445040245
291.476237114528	141.480405509642	585.256103257915	1433.04580779062	237.328721441959	2025.0373817768	668.84837780739	141.045373703441	1287.07020498469	1024.2195141041	163.565028048476	1473.0877826037	1095.66154189728	130.136611235721	2463.6253810726	1104.89791959735	152.077035524276	1672.70271470331	646.140512469157	128.178661909808	1172.6712560944	1188.92242824922	170.410683927936	1665.63923197916	886.297330298777	141.912946073561	1581.66445634757	1513.42547239894	185.231594303067	2180.32484542316	1314.31647426462	139.344084190483	2361.76648220514	808.620390098759	151.181031780064	1140.86401319541	626.693180693632	128.516769400138	1396.60427261518	966.897103930385	139.938843073884	1884.99582733522	343.308549558855	127	890.814545903933	678.503594019999	184.492095457573	1128.45245629891
291.748790643271	141.485796111192	586.072157987018	1430.95040689661	237.435181047554	2018.07915394894	668.849362637899	141.062484149013	1286.53046887091	1023.83819133145	163.602063581445	1471.49711190317	1096.28302186522	130.117932698753	2463.65348789319	1105.70744579516	152.082229950902	1674.93710430673	645.804687616794	128.179089624869	1171.17690407468	1188.47506706715	170.38690470598	1664.78823663171	886.303920223667	141.927093271276	1580.30681261063	1512.99448119203	185.226944050816	2178.55393169159	1314.39412961475	139.393618782089	2360.26518981454	809.073157741349	151.19079058339	1141.29725715391	626.855699561179	128.547288352867	1397.32241789337	967.662327852189	139.95927654881	1886.46233167487	343.752011441509	127	892.438742651711	679.63930372432	184.732956940856	1130.67350161612
292.065018522782	141.495955154354	587.022301402233	1430.65517144314	237.570291337091	2014.44555498358	669.101953889872	141.082403674188	1286.67244433076	1024.0393596715	163.653476811233	1471.0835184496	1097.16687019314	130.106530629557	2464.9422590386	1106.88382519782	152.109185075351	1678.12882838936	645.550240681481	128.188934303745	1170.05183137416	1188.77160333703	170.415080188412	1665.21762923332	886.395881819255	141.935497326854	1579.3855478205	1512.86099017011	185.267297050918	2177.46598631484	1314.65363055861	139.434020692311	2359.97777284863	809.71890828432	151.201213163101	1142.29081021244	627.149913526086	128.579235618702	1398.83704300608	968.646308546416	139.976220778044	1888.95892244761	344.196828071909	127	894.176565364188	680.83827276402	184.958493500288	1133.22955990836
292.420590658012	141.505258358629	588.094726613011	1431.79773901045	237.759039499696	2013.5437113603	669.561596749943	141.102409434054	1287.39314469645	1024.71202764295	163.709533052361	1471.65770410485	1098.27446167011	130.103207600203	2467.39097737598	1108.38376074221	152.150865298349	1682.17262037214	645.386409056448	128.20428981136	1169.40447459599	1189.69733737176	170.484931086669	1666.79465622944	886.515808610414	141.935497326854	1578.98138843375	1512.96273188177	185.345927263016	2177.09202100656	1314.99880305532	139.46507638204	2360.84483497782	810.464414387173	151.216560804629	1143.705626812	627.561269343507	128.606648416797	1401.0376615763	969.751929850786	139.988250197392	1892.23744924034	344.61309529402	127	895.888424463646	682.031834295553	185.165758607589	1135.93935363214
292.803698947011	141.506756605039	589.261472972081	1433.97506320478	238.014743315838	2014.7215955689	670.173812820067	141.118547631051	1288.57117842254	1025.72950278714	163.761508386973	1473.00084096718	1099.53308991454	130.107510119041	2470.79233820152	1110.11052334605	152.201213163101	1686.85624579053	645.313355255875	128.221407497842	1169.29835784302	1191.08868611296	170.58293461174	1669.30928585677	886.614056220786	141.927093271276	1579.13951849995	1513.23223460627	185.451397868562	2177.44908045757	1315.34496939963	139.487880852112	2362.75794151204	811.217706623966	151.240085896868	1145.41176266454	628.060534669977	128.625708679676	1403.74235247587	970.878875298597	139.995349747749	1896.00401702995	344.977407811742	127	897.455875425412	683.16070842541	185.352562715114	1138.63463661025
293.196301052989	141.493946174996	590.483381560631	1436.80024931987	238.337497582472	2017.37354475569	670.882178103872	141.130209520281	1290.08630921011	1026.96689428988	163.805199893195	1474.90016022317	1100.85461155694	130.117482266015	2474.86585026946	1111.93950102504	152.256486089669	1691.90428795915	645.328090071603	128.237269206585	1169.74950258871	1192.76807233128	170.69683199054	1672.50848629649	886.66170361557	141.912946073561	1579.87576868941	1513.61684155399	185.572306884342	2178.54100864065	1315.63939992235	139.504814449843	2365.57043618214	811.904878876994	151.276413225524	1147.29896381414	628.610074836296	128.637071194152	1406.71516049204	971.935147501185	139.998672777103	1899.94778286671	345.273052030552	127	898.789231416273	684.181005725514	185.516396136228	1141.16964835969
293.576754896195	141.464272653669	591.71723576938	1439.93229903525	238.713668703545	2020.97643104083	671.632939698827	141.137676600757	1291.82930571596	1028.30652286719	163.840033782615	1477.16299584384	1102.15453595914	130.130297433659	2479.30967796735	1113.74230831976	152.313259824478	1697.02608655785	645.432743153678	128.24884506471	1170.7405564693	1194.5681605383	170.817043171402	1676.13264439996	886.657222635844	141.897590565946	1581.16404378114	1514.08576731304	185.696906459593	2180.33187751219	1315.8631462513	139.517196340204	2369.07882935407	812.475276604181	151.325545539466	1149.26334629237	629.163390312217	128.640847784729	1409.69922625404	972.843321191843	140	1903.77054160617	345.490157009556	127	899.829739750219	685.061182622943	185.655399959881	1143.42659550556
293.92435374982	141.417968370865	592.9167903224	1443.08402708536	239.119804096024	2025.09495740685	672.374880656482	141.141805662347	1293.69027197537	1029.64043570035	163.868375343444	1479.60871308166	1103.36332162791	130.143566162526	2483.83060980667	1115.39927822479	152.371093721241	1701.94740237925	645.640449332049	128.256398176291	1172.23470455791	1196.34817988912	170.938843073884	1679.93509411719	886.634496430663	141.886102621199	1582.950449477	1514.64472496011	185.814932899984	2182.753110802	1316.03846027428	139.525800030874	2373.03617436286	812.904396691296	151.385497214595	1151.20454148881	629.678013530412	128.639868225671	1412.44230091128	973.549579132319	140	1907.20739265945	345.626768245277	127	900.547650276897	685.785022614198	185.768231973646	1145.31373789979
294.221732276365	141.359343918633	594.039020777659	1446.03118516425	239.526407031443	2029.3735343789	673.061281897977	141.143560600305	1295.55975105449	1030.87320305318	163.892940313696	1482.06721999497	1104.43644523011	130.155948052887	2488.15039497201	1116.8170939895	152.429020338555	1706.41953659946	645.98027578773	128.260803726135	1174.17963768889	1198.00621774068	171.061156926116	1683.68512781094	886.658000146896	141.881540282327	1585.15190519489	1515.3334523142	185.919097271995	2185.69399076818	1316.21565785385	139.530128742157	2377.1573083249	813.188973173473	151.449453813482	1153.01352087947	630.116414542685	128.637066456551	1414.71699943519	974.020173584007	140	1910.03644219072	345.688194270164	127	900.935145385402	686.345315138296	185.855285900085	1146.7610624743
294.457149940907	141.295882317962	595.045638540452	1448.61186233696	239.905224780115	2033.52026935512	673.653049168032	141.143560600305	1297.32145477176	1031.9250176819	163.916269102915	1484.37495002189	1105.3502631342	130.166889389524	2492.01158002252	1117.93101612256	152.486579425752	1710.22706986622	646.491345715581	128.265446737476	1176.50221262742	1199.47741416908	171.184284051494	1687.17001240836	886.810190971332	141.8861026212	1587.65690051348	1516.20901920321	186.006151198434	2188.99815276874	1316.45623905398	139.528928987358	2381.12348612508	813.338132649375	151.510366909703	1154.56640582693	630.451097759493	128.634277083604	1416.32959583632	974.240486005563	140.001327222897	1912.07478931596	345.684674799847	127	900.99270008128	686.74202624312	185.917770049098	1147.71121611258
294.626224070902	141.235414964768	595.90189528894	1450.71667994832	240.232683912823	2037.28524210909	674.116274215544	141.141805662347	1298.84907561289	1032.73108356218	163.938843073884	1486.3695804275	1106.10207370135	130.176557150985	2495.18363198716	1118.71196563106	152.543607290278	1713.19375142777	647.217100627119	128.27266520083	1179.10738592276	1200.73254880575	171.309145484607	1690.19930320108	887.178754933073	141.897590565946	1590.33040984079	1517.33749656266	186.075975766304	2192.47719707298	1316.82503364214	139.522611710527	2384.61831611507	813.370937925406	151.56070230871	1155.7401694404	630.669906462468	128.633958808673	1417.14233866007	974.213796417329	140.004650252251	1913.199561917	345.628966292131	127	900.730007413602	686.980588614071	185.958493500288	1148.12505029807
294.731572167148	141.185067100016	596.579745569193	1452.2904228652	240.494273387254	2040.45610881271	674.427385544484	141.137676600757	1300.01749163558	1033.25027193916	163.95927654881	1487.90425654738	1106.69982599478	130.187345582126	2497.47294928094	1119.16114192766	152.599953310026	1715.19054033415	648.188389692199	128.286149311173	1181.86948037598	1201.76921279477	171.434792666016	1692.61095498269	887.836410743389	141.912946073561	1593.0206220468	1518.76490014439	186.133026348506	2195.9270691083	1317.36695456334	139.511429574965	2387.35929664499	813.308321235083	151.595290639922	1156.42582218016	630.771534747885	128.637600112957	1417.07066210726	973.955407462951	140.011749802608	1913.33916216834	345.535525105933	127	900.154938954321	687.068992481083	185.980945499347	1147.97724033413
294.779455626796	141.148581303644	597.056693366612	1453.3178693951	240.685201818768	2042.85053803162	674.571731962657	141.130209520281	1300.70985842067	1033.46407010603	163.976220778044	1488.85388487062	1107.15620697332	130.199994533431	2498.74093857509	1119.30885459966	152.655226236595	1716.15144296514	649.412949179865	128.308959343467	1184.63264350798	1202.60134547496	171.55790263594	1694.28657569217	888.826163770441	141.927093271276	1595.56909650176	1520.50424412502	186.182962390819	2199.15131456777	1318.10251933028	139.496852574737	2389.13105923066	813.170617021159	151.612489068446	1156.55203701969	630.766898951314	128.645493229806	1416.09472041749	973.496190736468	140.023779221956	1912.48824792051	345.41706538826	127	899.278102865071	687.018906474192	185.989372272602	1147.26666358448
294.78095366569	141.128314045056	597.317452016533	1453.81828594001	240.810194513158	2044.33698014227	674.547314049693	141.118547631051	1300.83907465076	1033.3805519359	163.988250197392	1489.13589348542	1107.48252353937	130.215145668354	2498.91711647239	1119.2010874011	152.708656262201	1716.07804586627	650.862862876786	128.343016521582	1187.21652592977	1203.24916643225	171.673127237637	1695.16277139351	890.152577927193	141.934170103957	1597.82328777379	1522.52580958221	186.230850588068	2201.98457602779	1319.02205649404	139.481470874677	2389.81791823485	812.978574125115	151.613291972196	1156.10048611613	630.676975572762	128.657875120167	1414.26943007086	972.880638903431	140.04072345119	1910.72359720888	345.284039039754	127	898.117186918517	686.848697199818	185.986922974495	1146.02875778621
294.747440465485	141.122582951003	597.355645031666	1453.84282204986	240.882577351448	2044.84633996946	674.364519824723	141.102409434054	1300.35461382067	1033.03263297744	163.995349747749	1488.71673309872	1107.68520394926	130.231830077553	2498.00845789165	1118.89411462629	152.75911579904	1715.04032829546	652.474249100053	128.388820998997	1189.43005734525	1203.73360775893	171.774209448794	1695.23510404311	891.774914912071	141.930847074603	1599.65546763278	1524.75134299711	186.280171836025	2204.31061707566	1320.08225668649	139.469657914194	2389.41765601786	812.747440465485	151.601594142161	1155.1166974143	630.524820116608	128.674192068822	1411.71334288095	972.160564087863	140.061156926116	1908.18838285486	345.142233377408	127	896.698081614586	686.58079582321	185.976220778044	1144.33354470147
294.690495707163	141.130559291521	597.180005318967	1453.46659771599	240.921110233907	2044.40644552722	674.045695116264	141.082403674188	1299.27083005308	1032.4769031611	163.998672777103	1487.63596079969	1107.7714171837	130.247538125754	2496.12099748256	1118.45084629907	152.803960583676	1713.18847593003	654.151347503555	128.444093170517	1191.09834308278	1204.07537574863	171.856613122982	1694.57462648054	893.615101510641	141.915343468667	1600.96783631139	1527.06783988107	186.330392232679	2206.06394243348	1321.21620981286	139.463222140223	2388.02381602546	812.494202470635	151.582764378386	1153.69851619608	630.33641665203	128.69436091654	1408.60482911373	971.394659533515	140.082403674188	1905.09112141579	344.994022524852	127	895.060492397804	686.243377639763	185.95927654881	1142.28838808294
294.619059562056	141.148304328155	596.813757245373	1452.78185040372	240.947259547316	2043.13681828078	673.622824534669	141.061156926116	1297.66208746407	1031.78341253998	164	1485.9962438801	1107.75151683359	130.260112424899	2493.44447162007	1117.93716348073	152.841273092134	1710.73313827506	655.783409567634	128.507035618354	1192.09170059158	1204.29820077213	171.917770049098	1693.31700362486	895.569783255124	141.889166851605	1601.70890264483	1529.34657565981	186.379344116276	2207.23458279042	1322.3451979341	139.464267708553	2385.82167827761	812.235202865737	151.559913919163	1151.98852388004	630.1353067305	128.717435576042	1405.1671727498	970.63945456231	140.101082211157	1901.68644720277	344.83871212194	127	893.260397902304	685.868263671356	185.938843073884	1140.03195415387
294.540551321868	141.172260194368	596.294162351034	1451.89757574676	240.981147739745	2041.24346956306	673.135121409197	141.04072345119	1295.6563423044	1031.0301738942	164	1483.95214599835	1107.64787944456	130.266670570228	2490.24290192069	1117.41846968279	152.869440708479	1707.9279352521	657.265408195479	128.571253715963	1192.35056032587	1204.43211680608	171.958493500288	1691.65055428466	897.528966742437	141.856867114757	1601.87344028294	1531.46770739283	186.422618623116	2207.84775099304	1323.39449206505	139.471504289925	2383.03758037383	811.99016145263	151.534661760099	1150.14187694518	629.941992379951	128.743607385931	1401.64926951313	969.943337820136	140.1138973788	1898.25039064051	344.674454460534	127	891.374002414216	685.486947572975	185.917596325812	1137.72244904781
294.459448678132	141.20016074977	595.672198392853	1450.92699584026	241.040005553528	2038.99371915028	672.625992234128	141.023779221956	1293.42423870044	1030.29265379817	164	1481.6946330028	1107.49648115219	130.268780066652	2486.82593348987	1116.96131492408	152.887839628708	1705.04930153177	658.513720907316	128.632680761936	1191.89977468358	1204.51760592835	171.982272722244	1689.7979142242	899.391376247836	141.824945695083	1601.51386970087	1533.34142841992	186.45734948153	2207.97310010087	1324.30785125348	139.482022649101	2379.92804011374	811.7819418827	151.5070184629	1148.31041893193	629.772647156833	128.771140411214	1398.29487249073	969.343239988556	140.118459717673	1895.03856219361	344.500704660838	127	889.486979372531	685.127166344881	185.898917788843	1135.51384419063
294.380940437944	141.228859588786	595.001115541528	1449.98065133602	241.135486253222	2036.66850426953	672.139363105457	141.011749802608	1291.14450452597	1029.63735973883	164	1479.41248046027	1107.33891679875	130.268515509017	2483.49966862068	1116.62065895637	152.896792399797	1702.35962674401	659.476054863283	128.685156656985	1190.8427155835	1204.59387051783	171.994022524852	1687.97852328349	901.075342330272	141.799136608139	1600.72844494124	1534.91786065823	186.483215482234	2207.70676945703	1325.05230904244	139.493749734033	2376.74801622961	811.633252972776	151.475708847039	1146.62600747227	629.639648333177	128.79983925023	1395.32161442562	968.865988196246	140.1138973788	1892.27232848477	344.321088017049	127	887.695708781053	684.814437477035	185.886102621199	1133.54439624626
294.30817706994	141.256392614069	594.334708427671	1449.14725050161	241.271947303169	2034.53318533645	671.71160284186	141.004650252251	1288.98419180585	1029.1041476696	164	1477.27377657351	1107.21686559	130.269736700518	2480.5417201395	1116.43418545384	152.898119622694	1700.08833317775	660.134602012101	128.723475102389	1189.34581526917	1204.69588402207	171.998672777103	1686.38958905313	902.519687404258	141.785020410043	1599.65824731471	1536.18098410078	186.502723184971	2207.17151497464	1325.61679017692	139.505805345826	2373.74596218828	811.559192093126	151.442080208606	1145.19578306001	629.553106560408	128.829067028529	1392.89743654871	968.527968619294	140.101082211157	1890.10663744909	344.142588710868	127	886.090085042611	684.566442384862	185.881540282327	1131.91673545968
294.24525483647	141.281237201061	593.719190165931	1448.49137215682	241.447807640322	2032.80968399684	671.369112469736	141.001327222897	1287.07893209239	1028.71118208443	164	1475.4113215938	1107.15897461419	130.276390507848	2478.14898700628	1116.41582499228	152.893817103856	1698.39947307199	660.497247823052	128.743908577315	1187.59811210107	1204.84132969852	172	1685.16998670337	903.684927007587	141.785020410043	1598.46063621723	1537.14458163725	186.520631796693	2206.50148389359	1326.00692369497	139.518876858735	2371.1406765651	811.56862469869	151.410067747069	1144.09733190157	629.51886568945	128.857673146993	1391.1316479501	968.333648596032	140.083730897085	1888.63324378721	343.975170264597	127	884.748685343903	684.393830533051	185.886102621199	1130.69299912913
294.195341581406	141.30098883121	593.193814917596	1448.04743846601	241.656138112659	2031.66769423727	671.125681892205	141	1285.52589481652	1028.4522924008	164	1473.92063618458	1107.17679273437	130.291366455475	2476.4493914722	1116.55692020242	152.887167986235	1697.40522284942	660.586427779732	128.745108332114	1185.78770052384	1205.0292770618	172	1684.40879101627	904.543593064862	141.799136608139	1597.29087344449	1537.8266198712	186.54265051847	2205.83239116044	1326.23030212757	139.535439296025	2369.11212060777	811.654015410929	151.386795941182	1143.38407274091	629.54076598012	128.885840763338	1390.06394105446	968.28176842673	140.065807178367	1887.87490489242	343.829603558014	127	883.723675333709	684.298655642542	185.898917788843	1129.88927939613
294.159983372839	141.312730905673	592.788005867912	1447.81980745497	241.887429844096	2031.22089939042	670.981966416417	141	1284.38561419971	1028.30192365153	164	1472.86586179849	1107.26803458659	130.313795736858	2475.4919430813	1116.83798234523	152.881452368949	1697.16176020005	660.436049455207	128.726663422735	1184.07628979003	1205.24968286597	172	1684.14175798202	905.083433160693	141.824945695083	1596.27912312883	1538.25176248625	186.574861320854	2205.28744536891	1326.30058152127	139.557287703641	2367.78817812013	811.802851028318	151.380673239058	1143.08759678465	629.618243117388	128.912946073561	1389.67169984071	968.360289543763	140.052473253798	1887.80066159921	343.713261618707	127	883.037809791321	684.274972200051	185.917596325812	1129.4835353417
294.140041129988	141.313695405626	592.523381810343	1447.79566272863	242.130297433659	2031.52777433409	670.927988984146	141	1283.68253677498	1028.22720452748	164	1472.28255523586	1107.41768795424	130.343441733335	2475.26969376953	1117.22829928938	152.88021305943	1697.68042244967	660.083906024638	128.693577868018	1182.59413878477	1205.48197596913	172	1684.3691662051	905.307011219533	141.858194337653	1595.52022046909	1538.4428775923	186.619859766032	2204.97500372772	1326.23259941271	139.584330741468	2367.24173311456	811.995743614844	151.397780625718	1143.22282149406	629.749245230966	128.937515850987	1389.88571332165	968.552342690004	140.047558443912	1888.34733083247	343.630749351292	127	882.685587254832	684.310203835316	185.938843073884	1129.42659136016
294.135082075673	141.302033516396	592.410319629155	1447.95626275145	242.376273030239	2032.59218091174	670.949785468815	141	1283.40939738267	1028.19902322872	164	1472.17602945915	1107.60403434641	130.377076003562	2475.72368752357	1117.69414485837	152.8861026212	1698.92331642767	659.571938658209	128.652597587337	1181.43228051189	1205.70650379384	172	1685.0592064041	905.236362827244	141.893817103856	1595.07748328689	1538.42689577732	186.677510291001	2204.98839876342	1326.04413517689	139.61418118021	2367.48997762725	812.211195034346	151.441830165174	1143.78558593375	629.932620219219	128.95927654881	1390.60569367121	968.838205056132	140.053800476695	1889.43417391478	343.582407592819	127	882.635887760266	684.390508312903	185.95927654881	1129.65606038779
294.142588710869	141.27746373897	592.451299513927	1448.28936739584	242.617947786668	2034.37555738531	671.033383308541	141	1283.53741878584	1028.19946767628	164	1472.52813649862	1107.80088994317	130.411106919659	2476.75028746082	1118.19731037458	152.898917788843	1700.79574515451	658.9436189151	128.610463803116	1180.64027413615	1205.90268774813	172	1686.15156219131	904.91501981633	141.927093271276	1594.97730597029	1538.23977374413	186.744934608827	2205.38965351368	1325.75605582237	139.642960755922	2368.4797623399	812.428198926998	151.50992306656	1144.74372815131	630.166905488781	128.974893555147	1391.71523690301	969.197206360259	140.070457430618	1890.97111903676	343.565033610697	127	882.838778393596	684.501858160448	185.976220778044	1130.10480076225
294.161176205973	141.241586843051	592.642231596314	1448.79431870209	242.853093652666	2036.80650339145	671.169613723779	141	1284.02259897073	1028.22943304697	164	1473.30123047743	1107.97871977907	130.441875060919	2478.23488659379	1118.69443360317	152.917596325812	1703.16774566948	658.242523380545	128.573512135329	1180.23960640051	1206.05137251602	172	1687.57788452254	904.404988643797	141.954626296559	1595.21782441008	1537.92581276634	186.815715948505	2206.20831045542	1325.39340522283	139.667932811011	2370.09150599215	812.626665158379	151.596086106298	1146.03678630077	630.452027873646	128.983599945141	1393.09177609418	969.608927185746	140.095480699693	1892.8595835939	343.573198526091	127	883.231377881411	684.632338656388	185.988250197392	1130.70652937579
294.188939865967	141.198833526873	592.969920868987	1449.47738065119	243.083730897085	2039.7801021568	671.352861372029	141	1284.80961889615	1028.30092389267	164	1474.43554351685	1108.11184681316	130.466317370247	2480.05181397706	1119.14568046761	152.938843073884	1705.87971140977	657.515882920772	128.545224291795	1180.22656299395	1206.139472559	172.001327222897	1689.26221079025	903.787039338156	141.974893555147	1595.77242344711	1537.54486239761	186.884762980449	2207.43806037091	1324.99232168742	139.687772354538	2372.16016035517	812.795710196712	151.689527292496	1147.58034610465	630.78662434239	128.983599945141	1394.62139813464	970.054684186715	140.12618865601	1895.00220227443	343.600736358548	127	883.749811219324	684.773071021969	185.995349747749	1131.40296037052
294.221755231254	141.153555464955	593.413307236168	1450.34202897227	243.315122959755	2043.17313784994	671.57918285687	141	1285.83780218653	1028.42925216289	164	1475.85675187073	1108.17649247368	130.480426327433	2482.09373554239	1119.51157429213	152.95927654881	1708.77159664444	656.809991617423	128.525255856499	1180.58743018234	1206.15674857167	172.004650252251	1691.13846942993	903.1473842948	141.988250197392	1596.5981121485	1537.16400679074	186.947526746202	2209.03844858764	1324.59438073401	139.702883934741	2374.49806583263	812.930863612953	151.780186923941	1149.27462997628	631.166095171717	128.974893555147	1396.20113167228	970.514781034596	140.159271082241	1897.29653254823	343.641983304264	127	884.334410201314	684.915915807281	185.998672777103	1132.1446117913
294.257719836966	141.110833148395	593.942328517491	1451.38108416053	243.554400321078	2046.84647691789	671.844976221083	141	1287.03970152262	1028.62525398027	164	1477.47627536867	1108.15638318626	130.48166731564	2484.27055580991	1119.76000221466	152.976220778044	1711.69608223614	656.170644744667	128.512471618901	1181.30261421891	1206.09855690017	172.013077025505	1693.15069656621	902.573174975287	141.995349747749	1597.64047864836	1536.85681557129	187.000544174375	2210.9439459453	1324.247959589	139.715867484646	2376.92052036407	813.036415769969	151.857940345879	1151.01674608354	631.58083323378	128.95927654881	1397.7481783789	970.969285913982	140.191366446397	1899.64379404836	343.691390427772	127	884.937683429409	685.052732456727	186	1132.89299546498
294.295646256637	141.075561174518	594.520204081632	1452.57046059815	243.808799631999	2050.65954263466	672.145169339826	141	1288.34881302899	1028.89043661323	164.001327222897	1479.20219456039	1108.04574228166	130.469285425279	2486.51368706703	1119.87050695005	152.988250197392	1714.53490721914	655.639579644512	128.503692374633	1182.34753183988	1205.96880974355	172.028429474207	1695.25608028867	902.1390462444	141.998672777103	1598.84088084292	1536.69382062928	187.043429648361	2213.07751053685	1324.00118937199	139.729459433168	2379.27630228315	813.123283417856	151.917770049098	1152.7133982129	632.013263166645	128.937515850987	1399.19821387831	971.393651592952	140.220080274945	1901.9500880888	343.743513910331	127	885.524813966398	685.172707972173	186	1133.61937452803
294.334587245019	141.050023955691	595.107548045301	1453.85925782541	244.082229950902	2054.47914406066	672.468897280954	141	1289.69832462774	1029.20763729382	164.005977475148	1480.9440990104	1107.84947702091	130.443834371569	2488.77493474694	1119.83742464667	152.996676970646	1717.21023677726	655.252186806118	128.497634848264	1183.69291648972	1205.77841336471	172.053800476695	1697.42257242113	901.897293791484	142	1600.14887874615	1536.73005986268	187.077753421938	2215.37093627671	1323.88974049232	139.74526537352	2381.47137991254	813.20375292752	151.958493500288	1154.29880960465	632.442157377433	128.912946073561	1400.51351437531	971.765940847101	140.2442150964	1904.14130299624	343.792809361752	127	886.077925028927	685.266486240333	186.001327222897	1134.30757592823
294.375743973492	141.038183470358	595.67006687535	1455.18182206321	244.376093744731	2058.20788253325	672.803686529157	141.001327222897	1291.03775196311	1029.55176936705	164.017727277756	1482.63716496688	1107.58518365848	130.407242485278	2491.02191309482	1119.6725464212	153.003323029354	1719.68291803794	655.031636124009	128.49217863335	1185.29483990018	1205.54850897157	172.09091362322	1699.62595376302	901.87525995208	141.998672777103	1601.52174352634	1537.00224181849	187.105732463407	2217.77330274114	1323.93690689986	139.76131565714	2383.4726164395	813.291318102202	151.982272722244	1155.73853084013	632.847933113001	128.887167986235	1401.68413923554	972.070813326754	140.263435454253	1906.17797035939	343.834061869689	127	886.593931778018	685.328099482457	186.005977475148	1134.95732812326
294.42076994352	141.041506499712	596.18136685841	1456.47032681163	244.689117507884	2061.77664141507	673.135429305834	141.004650252251	1292.32518644523	1029.8950182065	164.041506499712	1484.23849897191	1107.28198363488	130.364694043628	2493.24221208983	1119.40806930473	153.013077025505	1721.95987569142	654.987758762633	128.487821169006	1187.09613032943	1205.3106004979	172.140854403134	1701.8528052095	902.072806296807	141.995349747749	1602.92969703998	1537.52178378655	187.131624656556	2220.25631200498	1324.14734429748	139.773680392046	2385.3020754957	813.396859785816	151.994022524852	1157.03494222112	633.214024382402	128.862323399243	1402.72096081924	972.29949709417	140.279747595733	1908.04954117369	343.861263375233	127	887.078229177246	685.356084036523	186.017727277756	1135.57755486381
294.47119848074	141.061773758299	596.631527845802	1457.66870842535	245.017727277756	2065.16655544797	673.451460940847	141.011749802608	1293.54627495462	1030.21638889169	164.082229950902	1485.7473331744	1106.98768396773	130.320966045139	2495.44500393292	1119.10310297256	153.029756697104	1724.08518829997	655.119874953658	128.483205182412	1189.02600552317	1205.11514022917	172.203745636985	1704.10111750065	902.467541993529	141.988250197392	1604.34592442135	1538.276362798	187.159966217385	2222.80138422889	1324.51066310586	139.775536671691	2387.00809282034	813.531489555377	151.998672777103	1158.21518234875	633.535944558098	128.83948960824	1403.66253448351	972.460269983179	140.297209540859	1909.79185709965	343.870994653708	127	887.546047111449	685.357821215602	186.041506499712	1136.19479093938
294.527824067602	141.099340396474	597.021498464806	1458.74899601981	245.359693689872	2068.38245678762	673.745085614438	141.023779221956	1294.69812532816	1030.51017888863	164.143386877018	1487.18286888808	1106.76052976741	130.28266006548	2497.63891858595	1118.83625684875	153.057123506049	1726.11874736088	655.417977947511	128.478961118469	1191.002702028	1205.02485708461	172.278531003891	1706.36955887559	903.023706442661	141.976220778044	1605.75000541823	1539.23530754166	187.197454552599	2225.3968232856	1325.00802611751	139.760710220824	2388.644480664	813.704341817225	152	1159.32096759566	633.819212701146	128.820295442833	1404.55731120226	972.573242666788	140.320988762815	1911.45990059365	343.86259059813	127	888.012916831281	685.348190268359	186.082229950902	1136.84112073517
294.590220303238	141.152883822482	597.363508789352	1459.71544239004	245.712113681318	2071.45310591045	674.015910001759	141.04072345119	1295.79225905594	1030.78530784324	164.225790551206	1488.58266466048	1106.66316913256	130.25360319323	2499.83526772104	1118.69333751416	153.098013173577	1728.1220108753	655.868544049753	128.474472344957	1192.94949833725	1205.10746454348	172.362928805848	1708.65731751919	903.698966494242	141.95927654881	1607.11519517882	1540.35595948322	187.250446563322	2228.0105482074	1325.61761183347	139.727434053403	2390.23325545462	813.924705386733	152.001327222897	1160.38691356213	634.076871119182	128.804764312047	1405.45249155651	972.663573680417	140.356000071488	1913.10840039825	343.83871212194	127	888.490243313839	685.34504496026	186.143386877018	1137.54625425524
294.65654789727	141.220689866219	597.675117085964	1460.59312179083	246.072906728724	2074.40938084398	674.267854366371	141.062484149013	1296.84484698576	1031.05689902155	164.326872762363	1489.98022766748	1106.75170322155	130.238084528189	2502.01921498316	1118.75288969258	153.152883822482	1730.12625262307	656.453697173267	128.469202315144	1194.79174678913	1205.42130462676	172.454912531704	1710.9448382383	904.448237083696	141.938843073884	1608.41473664634	1541.58512223599	187.324594280253	2230.59248178071	1326.3126289472	139.679104712785	2391.76263496201	814.196365310859	152.005977475148	1161.43029873151	634.322190124883	128.792734892699	1406.3817807964	972.755240976216	140.405495108374	1914.77255958876	343.80455916436	127	888.980403565755	685.364072588279	186.227117774103	1138.32861095536
294.724814743139	141.298964478817	597.971496708957	1461.4240594916	246.440770141163	2077.26742000487	674.510695370531	141.087053926439	1297.86608779547	1031.3450408053	164.440770141163	1491.38900682979	1107.05664927727	130.23604231492	2504.14384073197	1119.06050531171	153.220689866218	1732.12115223045	657.149171848914	128.462683794107	1196.46757841549	1205.99469813335	172.551064943443	1713.18804040931	905.221607397165	141.917596325812	1609.61940814232	1542.85257914426	187.423558713043	2233.06915164759	1327.05485065807	139.623732531983	2393.18530912274	814.513482466752	152.016400054859	1162.44523418539	634.562021980351	128.782895020996	1407.35177234365	972.860724067455	140.470005647606	1916.44986687612	343.76596590939	127	889.475773016269	685.414532125118	186.331523014614	1139.1855915336
294.79105993639	141.38417555392	598.266320127726	1462.24052974091	246.813195892475	2080.02851115832	674.750369582902	141.112832013765	1298.85745041149	1031.65507211706	164.559229858837	1492.79860020838	1107.577983079	130.246234325955	2506.14376141403	1119.62084433709	153.298964478817	1734.05879712169	657.922672718239	128.454564798292	1197.93074691245	1206.81887969782	172.650148219657	1715.32429626185	905.965719922391	141.898917788843	1610.70155432478	1544.07508857966	187.545996265499	2235.3506660101	1327.79602816032	139.572202067886	2394.43571091063	814.858364448229	152.035529024564	1163.40543578679	634.793780855279	128.77500965277	1408.33964739376	972.978414678013	140.546953037308	1918.09187349052	343.727463626711	127	889.956030613424	685.493779307341	186.453847166669	1140.08939833323
294.853093652666	141.472263845776	598.567334451344	1463.06306366431	247.186804107525	2082.67994967866	674.991135142289	141.137676600757	1299.81183610924	1031.98375597519	164.673127237637	1494.1802265406	1108.27792121971	130.264371457895	2507.93974837232	1120.39063337606	153.38417555392	1735.86218105732	658.731833769602	128.444882047299	1199.14981806511	1207.83849341907	172.751225693213	1717.27587240802	906.628160426663	141.886102621199	1611.63824460396	1545.16481585612	187.686216680996	2237.34893492434	1328.48182552315	139.534936035814	2395.45625650572	815.206407097106	152.065829896043	1164.27715894731	635.003330674244	128.768169922447	1409.30233519594	973.089594045213	140.632136587561	1919.62872987257	343.690063204875	127	890.40002924768	685.588182827569	186.58898655594	1140.99610979176
294.909291524467	141.55790263594	598.878708336475	1463.895818027	247.556575413043	2085.20083623247	675.234728470706	141.159183168863	1300.71564008221	1032.31773195957	164.774209448794	1495.49368919925	1109.09103545719	130.286245486547	2509.47020016465	1121.29092139739	153.472263845776	1737.4552274564	659.525818386057	128.434456339102	1200.11431095521	1208.9654276093	172.854705091961	1718.97272979516	907.158277017004	141.881540282327	1612.41338248868	1546.03340129498	187.8330878928	2238.98664832094	1329.05264590591	139.515807066108	2396.20829980945	815.524037961076	152.106530629557	1165.02636377434	635.173355603559	128.762306553122	1410.18254277325	973.171626858046	140.718500941078	1920.97480443702	343.653383335633	127	890.785768747769	685.679004381553	186.731577966583	1141.84964494023
294.95927654881	141.635656057877	599.201434057173	1464.71984047629	247.916465543877	2087.57333560253	675.476719270109	141.175054304917	1301.55544941004	1032.63376463207	164.856613122982	1496.70289457434	1109.9340076879	130.305805299799	2510.69731125536	1122.22001499863	153.559229858837	1738.77328912907	660.254467373165	128.425065221449	1200.83301194296	1210.09165101344	172.961809022694	1720.36077924984	907.521900736799	141.8861026212	1613.0232446867	1546.61893579277	187.975422611894	2240.21751798518	1329.46515800161	139.515004092785	2396.69203800005	815.783603408094	152.15663762581	1165.63052573169	635.287535032835	128.758325243571	1410.92535058272	973.20055186432	140.799315893647	1922.05682828891	343.615830008302	127.001327222897	891.098695813764	685.745594436871	186.876872874622	1142.59604584928
295.005772327461	141.700506602378	599.535281720768	1465.50876796098	248.258409238318	2089.7848448742	675.712404552933	141.183485885345	1302.31986807671	1032.91182714993	164.917770049098	1497.78167383209	1110.72223257877	130.319428178367	2511.62150214126	1123.07213399246	153.641633533025	1739.78601759299	660.874626282123	128.420336666237	1201.33751050329	1211.10821009869	173.072392778973	1721.41661901528	907.703774003873	141.898917788843	1613.47803677283	1546.89378549952	188.101349410043	2241.03188537591	1329.69557599078	139.527829629824	2396.94315337526	815.963087699947	152.211915359552	1166.08375069079	635.339578137836	128.757899207198	1411.49201524851	973.164511415066	140.86836292559	1922.83374956008	343.57626756367	127.004650252251	891.335304639429	685.774746767537	187.021246748072	1143.19495903793
295.051425647641	141.74658294791	599.875858296594	1466.22174101901	248.57502058846	2091.82593051318	675.932904037464	141.183485885345	1303.00036934217	1033.1303507528	164.958493500288	1498.71483677454	1111.38569163017	130.324478274546	2512.27153598419	1123.75554376685	153.716906657237	1740.48919496736	661.358557220211	128.424173645342	1201.67439131387	1211.92471985085	173.186018359229	1722.14312247737	907.710063909283	141.917596325812	1613.8041565419	1546.86871850741	188.203927622267	2241.46360474963	1329.74380286036	139.547293915088	2397.03065383674	816.050193219873	152.267452843755	1166.39619415534	635.335028167192	128.762975495821	1411.8656276509	973.066777157287	140.922420301349	1923.29986647323	343.536233685402	127.011749802608	891.501777401146	685.763416417994	187.162239137273	1143.62565780937
295.098557347952	141.769986911604	600.216562477931	1466.81813467087	248.856664874359	2093.69072828343	676.128809639576	141.175054304917	1303.59208578795	1033.27403939676	164.982272722244	1499.49995842517	1111.87744743463	130.319428178367	2512.68088018292	1124.20379170292	153.783439195371	1740.89300660754	661.694645205632	128.439730968573	1201.88924960695	1212.48008668671	173.299508653192	1722.55925479298	907.565201627211	141.938843073884	1614.03957497336	1546.58727225906	188.281764219982	2241.5778636141	1329.62909823348	139.567727390015	2397.03677466922	816.041726620475	152.317293244546	1166.58815389631	635.289552588214	128.774056355731	1412.05518890496	972.923648486425	140.959820723185	1923.48881509666	343.498850419021	127.023779221956	891.612887728615	685.718930960004	187.296854207398	1143.89083755154
295.148210852555	141.768231973646	600.548601376391	1467.26281666956	249.093056515789	2095.37553555552	676.293233788745	141.159183168863	1304.09271176814	1033.33868787781	164.994022524852	1500.14606838089	1112.18127875266	130.304478076902	2512.89271959394	1124.38836821599	153.840467059898	1741.02422014149	661.889508944277	128.467872392473	1202.02554845546	1212.75611995634	173.408476232575	1722.70430483638	907.299964251803	141.95927654881	1614.22276058726	1546.10557560291	188.338106715335	2241.45878715809	1329.37735758273	139.586454082056	2397.03720682944	815.936794627082	152.355484221852	1166.68640777869	635.225338267377	128.791949144403	1412.08495003622	972.759474099214	140.982272722244	1923.45687125971	343.468678424709	127.04072345119	891.683517102244	685.654341450478	187.42295495003	1144.00930958548
295.199885940204	141.740698948362	600.857538140124	1467.52926792546	249.270298330525	2096.87008640172	676.422348758666	141.137676600757	1304.49692947372	1033.32809419559	164.998672777103	1500.66301513487	1112.31094512594	130.280268011399	2512.9354039871	1124.31820813397	153.887839628708	1740.91345712734	661.964516927378	128.508598902576	1202.11151901997	1212.77248306533	173.509293816523	1722.62425304753	906.948997611021	141.976220778044	1614.38115215962	1545.48877287794	188.381254047182	2241.19087701708	1329.02192440249	139.604336501333	2397.08626431342	815.742435283754	152.378545950127	1166.71662832582	635.161907598486	128.81573310396	1411.99486803026	972.598477920136	140.994022524852	1923.27883400823	343.44894747441	127.061156926116	891.730529264381	685.585226094346	187.536940242208	1144.0178862891
295.250508614521	141.688910460313	601.126147583103	1467.60696574029	249.371142372957	2098.169595205	676.515593162904	141.112832013765	1304.80120231108	1033.25441590682	165	1501.06505501205	1112.30326966022	130.247971403037	2512.83587088827	1124.03760102358	153.925766048379	1740.59980050097	661.950815092799	128.557230993467	1202.16892279153	1212.58227354096	173.59782792098	1722.37650057875	906.540902149305	141.988250197392	1614.53295329672	1544.79311076162	188.420764381298	2240.85477460346	1328.59032189645	139.625054192658	2397.21899147564	815.467273790989	152.384437190585	1166.7061499041	635.110381481671	128.844051947113	1411.82651388977	972.455932781002	140.998672777103	1923.02987138243	343.440153171038	127.082403674188	891.767506475936	685.523334381152	187.63520562514	1143.95825225624
295.29685976962	141.617854311069	601.337293600885	1467.50193848792	249.378711836152	2099.27964282129	676.579310483663	141.088381149336	1305.00208921417	1033.13790517589	165.001327222897	1501.36755848986	1112.20987955719	130.209378078494	2512.60997719199	1123.61307571192	153.954626296559	1740.12432020816	661.882830588175	128.609684588502	1202.20685670706	1212.25749801447	173.673127237637	1722.01883542404	906.09966151266	141.995349747749	1614.67922894247	1544.07008637611	188.464809183154	2240.5145651814	1328.10858906276	139.653395753487	2397.44107649008	815.125806053106	152.374852331742	1166.67673204614	635.070773473591	128.875138566887	1411.61292619034	972.336152982924	141	1922.76904535538	343.439442918266	127.101082211157	891.802740077119	685.474635615917	187.714807460636	1143.87047230402
295.335564696677	141.53608002486	601.47532580114	1467.23821327985	249.281691596384	2100.22030672271	676.622955045682	141.068461624161	1305.09991726769	1033.00071754331	165.005977475148	1501.58667869953	1112.0831025861	130.166889389524	2512.27332930912	1123.11906763735	153.974893555147	1739.53660902016	661.790975799783	128.659072760474	1202.22813920857	1211.87285250468	173.734284163753	1721.60961445561	905.64239078501	141.998672777103	1614.80855317126	1543.36308782822	188.518087981953	2240.21480733884	1327.60178148927	139.692076921834	2397.73804179813	814.739893671174	152.353454356863	1166.64719117522	635.033075174691	128.905846523203	1411.37921688103	972.232529367654	141	1922.54191985052	343.439971975014	127.113897378801	891.842128936406	685.439265418208	187.774209448794	1143.7888614648
295.363190442512	141.453847166669	601.532983121485	1466.85218124781	249.078572121678	2101.03187795741	676.655199994524	141.058450728946	1305.10140181274	1032.86292173798	165.017727277756	1501.74277889143	1111.97138359539	130.125781571172	2511.84948815417	1122.63004176408	153.989577420289	1738.89918808639	661.697753519456	128.702015010668	1202.23173633845	1211.49708988463	173.783439195371	1721.20523571967	905.181454589003	142	1614.90419713685	1542.70649282885	188.581943715757	2239.98685120117	1327.09224189812	139.741214797998	2398.08411824496	814.338206370262	152.326095276063	1166.6356631329	634.981667285928	128.934192821633	1411.14294598906	972.13436496727	141	1922.37955618829	343.434897482471	127.118459717673	891.891110906685	685.415334969445	187.814932899984	1143.73965653822
295.378721573298	141.383102322797	601.513732489383	1466.39273962603	248.781882592504	2101.77589143333	676.687154938878	141.063958498771	1305.02787079197	1032.74184938113	165.040179276815	1501.86758287492	1111.91175801878	130.089586400323	2511.37578565616	1122.20917212385	154.001327222897	1738.28600781442	661.614242827428	128.732956940856	1202.21145185845	1211.18238387768	173.823089553381	1720.85905430365	904.726477015557	142	1614.9480233689	1542.12986774505	188.653471249011	2239.84799139271	1326.60607218661	139.79571018864	2398.44990470055	813.954725571594	152.29763725592	1166.66074833125	634.904793032875	128.956622103016	1410.91174889874	972.035458217848	141	1922.29581520185	343.418039128789	127.113897378801	891.953778892973	685.401727208504	187.840467059898	1143.73862557973
295.382319412218	141.333536731573	601.430656259785	1465.91031333499	248.414831851521	2102.51285904142	676.724137538445	141.088002278362	1304.9056447258	1032.64841806778	165.076252475754	1501.99279364245	1111.92709576751	130.064223056406	2510.89763731476	1121.9024395967	154.015072831962	1737.77632344434	661.540342067143	128.74990117009	1202.15578565858	1210.96175901251	173.856345924096	1720.61671789605	904.287402065017	142	1614.92595167959	1541.65662063399	188.727446471257	2239.80464284817	1326.17361658489	139.847116177518	2398.81258116102	813.62700916386	152.272792668928	1166.7433228729	634.798108604833	128.971570525793	1410.68787581954	971.935893970387	141	1922.29257711527	343.388567007222	127.101082211157	892.034331384257	685.39911611061	187.856345924096	1143.79126978747
295.37496092497	141.308971761321	601.305988362079	1465.44717041683	248.00595538974	2103.29258918104	676.767282812517	141.130309851513	1304.76931722927	1032.58502489584	165.126986822159	1502.15042752238	1112.02525380893	130.052208696163	2510.46573729912	1121.73401991292	154.035529024564	1737.4398004026	661.467167918336	128.750094911279	1202.05385008843	1210.8468651338	173.885840763338	1720.51034135353	903.872535779809	142	1614.82643195376	1541.29928989541	188.797581585912	2239.84452329167	1325.82245685513	139.885586771564	2399.15161265683	813.387359787196	152.253966033639	1166.89777159803	634.667779150469	128.976500394784	1410.47454903494	971.844152278344	141	1922.36605510213	343.350919183205	127.082403674188	892.13909120318	685.411808910436	187.868463256822	1143.89803327893
295.358016695736	141.309521448292	601.162069521024	1465.0284215686	247.582922460825	2104.13029893093	676.813532615298	141.185611274391	1304.64779466851	1032.54527838859	165.190261526642	1502.35706192925	1112.19937195624	130.053800476695	2510.11967544532	1121.70202607739	154.064502673146	1737.31801718807	661.380121227421	128.732175930161	1201.89489139117	1210.82702609826	173.912946073561	1720.55022660745	903.492037492659	142	1614.64670601305	1541.06112562722	188.859145596866	2239.94238818287	1325.57945831158	139.902697217136	2399.45392081416	813.259254325601	152.242211423857	1167.1309399515	634.525226331983	128.971570525793	1410.27086890317	971.768385352715	141	1922.49867797851	343.313516120118	127.061156926116	892.273798020591	685.441717738039	187.881452368949	1144.05213070272
295.33291228871	141.328177267584	601.019530354379	1464.65524057662	247.166397722545	2105.00402093177	676.856068948607	141.244642811461	1304.56210433629	1032.51317759126	165.26104286632	1502.61219034318	1112.42639622112	130.065807178367	2509.87695253686	1121.77528059422	154.101880377306	1737.40978030487	661.262019050362	128.696362551256	1201.67342422878	1210.86880759032	173.937515850987	1720.71634181387	903.152517369362	142	1614.39407955949	1540.92841749947	188.907759153883	2240.06133230814	1325.45952045573	139.893990827142	2399.71951674194	813.249438658142	152.236740149838	1167.43799541402	634.384498452526	128.956622103016	1410.06971388719	971.711445683941	141	1922.65411781493	343.286947477322	127.04072345119	892.442188973404	685.486907886579	187.897590565946	1144.23875694566
295.300968151361	141.355833993091	600.892076571953	1464.30112336072	246.768178815906	2105.85346130173	676.884836042238	141.297383264146	1304.51628906299	1032.46450892078	165.33291228871	1502.89280887831	1112.67553454729	130.085058119982	2509.72909840791	1121.9028838509	154.144887823201	1737.6679710551	661.094661317599	128.644026120957	1201.38649619381	1210.92324639633	173.95927654881	1720.95979509822	902.854859829502	142	1614.08094610646	1540.87196719621	188.941549271054	2240.15161875801	1325.46142470604	139.861263375233	2399.95103546024	813.346566557468	152.237807552701	1167.79958242957	634.2518633729	128.934192821633	1409.86215669028	971.663854268617	141	1922.78852692641	343.279870644641	127.023779221956	892.647001703738	685.53765049498	187.917596325812	1144.43920174025
295.263435454253	141.383652197336	600.783356464323	1463.92633946043	246.393493968923	2106.5921138432	676.891193795623	141.33343930763	1304.49797530046	1032.37578032221	165.397941980776	1503.16015476975	1112.90855088833	130.107059686304	2509.65251479433	1122.02053584223	154.188136137596	1738.01410130449	660.859628018485	128.577908395805	1201.03675838772	1210.93277333632	173.976220778044	1721.21486995314	902.589912190188	142	1613.72535265516	1540.84224471817	188.959820723185	2240.16659614318	1325.56147264274	139.811065696255	2400.16388457616	813.521822422673	152.244998144922	1168.18968663509	634.126203773637	128.905846523203	1409.63596889031	971.603818613871	141	1922.85277624281	343.296942341973	127.011749802608	892.889798894516	685.578190712319	187.938843073884	1144.63180415934
295.221667317876	141.403377981323	600.692979904439	1463.48730810291	246.041845073627	2107.14181846504	676.869093996153	141.346254475274	1304.48494225595	1032.22722520169	165.44813485258	1503.37640427155	1113.0935147162	130.130297433659	2509.62171846888	1122.071589874	154.226729392565	1738.36183884159	660.541440966267	128.505260396456	1200.62794773618	1210.84815208639	173.988250197392	1721.41463957458	902.341007542224	142	1613.34961565298	1540.78474239177	188.963143752539	2240.07354050141	1325.72068407609	139.752702742745	2400.38826109089	813.737104948736	152.258074811288	1168.58648886301	634.000956771809	128.875138566887	1409.38296840305	971.506119744322	141	1922.80792586537	343.339143755632	127.004650252251	893.17139414876	685.591426343483	187.95927654881	1144.79828436595
295.178400051946	141.412323511502	600.616633736672	1462.95701354964	245.714378689377	2107.4559103697	676.817747690381	141.33343930763	1304.4553749384	1032.01316062602	165.476999907935	1503.51775858461	1113.20556623437	130.153988742237	2509.62061041145	1122.01438529765	154.25613631843	1738.63732793079	660.127910215577	128.433038503053	1200.15993213805	1210.63396835423	173.995349747749	1721.50657265108	902.087842941163	142	1612.97176643829	1540.64605807571	188.954626296559	2239.85596334477	1325.88835166794	139.697966483604	2400.65329870702	813.953757323694	152.277629817367	1168.97401534709	633.864835844594	128.84537917001	1409.09963298577	971.347077112726	141	1922.6344476314	343.401902831675	127.001327222897	893.490081977827	685.560588804577	187.976220778044	1144.92502170111
295.136611235721	141.409543635438	600.551966885015	1462.335512533	245.415257800618	2107.54165183397	676.744042967078	141.297383264146	1304.39645847152	1031.74419849388	165.482196372388	1503.58546038869	1113.23178958812	130.178400051946	2509.65715842604	1121.83338982636	154.273080547663	1738.80647003769	659.612647068436	128.369709184746	1199.63554423587	1210.2772290051	173.998672777103	1721.46763330798	901.810120044106	141.998672777103	1612.60412494274	1540.38698599609	188.93618862809	2239.51560005177	1326.01478046525	139.653483666865	2400.97606719675	814.139821421083	152.301527177325	1169.34359296807	633.70847302835	128.820383356211	1408.78818381802	971.114303215069	141	1922.33440506466	343.478241320923	127	893.837895186457	685.477938749294	187.988250197392	1145.00415597726
295.098803729047	141.398198276416	600.497855811908	1461.64806821898	245.156503143385	2107.45301737751	676.658012908035	141.244642811461	1304.30582964918	1031.43901860131	165.465599876566	1503.60107431716	1113.17493862948	130.202962588463	2509.74598767877	1121.54039703613	154.276136516073	1738.86752060941	659.001493863969	128.323632908786	1199.0538124964	1209.79188310231	174	1721.2995584984	901.496655896561	141.995349747749	1612.25183609538	1539.9930517465	188.912946073561	2239.06962349918	1326.06478464864	139.623988827622	2401.3552178319	814.280369901498	152.327824021576	1169.69463085137	633.527221059636	128.803698947011	1408.45400339531	970.809529453993	141	1921.93018861391	343.560557081733	127	894.202182985032	685.342428014138	187.995349747749	1145.03384045236
295.067134401264	141.383117578367	600.456654517957	1460.94375973576	244.95477334139	2107.28559712006	676.573325239141	141.184284051495	1304.19467313759	1031.12297191782	165.433041202827	1503.60111584284	1113.04768526784	130.225964274493	2509.9013368244	1121.16727705022	154.265889559533	1738.84825607566	658.31125375241	128.299510553076	1198.41604890152	1209.21017078621	174	1721.02214220888	901.144260301479	141.988250197392	1611.90533743908	1539.46978002361	188.887167986235	2238.53359515174	1326.01849215383	139.609437186321	2401.74813447174	814.374332957712	152.352938678798	1170.02373922605	633.322487671172	128.797835577687	1408.09808419925	970.449648216617	141	1921.45399266139	343.642960755922	127	894.562925150523	685.162433540409	187.998672777103	1145.01420060245
295.042050674087	141.36857366521	600.429032756409	1460.27790707706	244.829835371719	2107.13852556411	676.50142629043	141.125659599262	1304.07408094329	1030.81805780705	165.394872943197	1503.61745617022	1112.87406534384	130.245970034358	2510.1100259129	1120.75974781103	154.245970034358	1738.7804266775	657.572359266282	128.300431587665	1197.72142509714	1208.57933096326	174	1720.6554703038	900.760067058253	141.976220778044	1611.54620475149	1538.84504965089	188.862323399243	2237.92351261987	1325.88120698643	139.605930785174	2402.08628859853	814.435560107901	152.373730256533	1170.32920959178	633.102403871832	128.803698947011	1407.7140054162	970.066609686208	141	1920.9395661095	343.724211355281	127	894.899559317568	684.955947957235	188	1144.94744648835
295.025106444853	141.357039244078	600.414910976144	1459.70800299135	244.795908165011	2107.0958327747	676.451078425678	141.076252475754	1303.95369392636	1030.54091011286	165.361712214005	1503.67048262606	1112.68623934905	130.260353293398	2510.32385464488	1120.37056041687	154.220428008357	1738.6859401228	656.824777484392	128.323904707331	1196.96307892092	1207.95542021509	174	1720.21020934734	900.357588931049	141.95927654881	1611.14063530843	1538.15389708327	188.840816831137	2237.23788491275	1325.67304114089	139.608450841204	2402.2721518091	814.484575753208	152.387327697703	1170.60358135196	632.877584410173	128.819056133314	1407.28545070041	969.696034317912	141	1920.41611370527	343.807143948275	127	895.197552937351	684.744651537266	188	1144.83655603567
295.017727277756	141.349312343569	600.411459139196	1459.28238448311	244.859953500162	2107.2089850706	676.428678670616	141.040179276815	1303.83611915269	1030.3077906442	165.343272817222	1503.76407600702	1112.52374733146	130.267886121038	2510.46062695139	1120.05740547928	154.194712193427	1738.56624991163	656.116069265033	128.364256028745	1196.12864108036	1207.39952479689	174	1719.68062145005	899.95456424536	141.938843073884	1610.64261094269	1537.43585621442	188.824945695083	2236.45780469008	1325.42664714769	139.611426137146	2402.19629122501	814.544257975211	152.392747554151	1170.835553178	632.660583217222	128.840728917759	1406.78447270828	969.375151996083	141	1919.9035046927	343.899700837365	127	895.453099729909	684.552477172429	188	1144.68605630457
295.022377530006	141.344779325627	600.413914270948	1459.03527876782	245.013870680636	2107.49261130857	676.438937984753	141.017727277756	1303.71621445238	1030.13188195377	165.346354978077	1503.88759618329	1112.42756210886	130.267886121038	2510.42396197282	1119.87157520326	154.173205625321	1738.41094712966	655.494638170049	128.414189080514	1195.2049500615	1206.96747810542	174	1719.05192613846	899.569701018403	141.917596325812	1610.00380031795	1536.72739619279	188.816514114655	2235.55504617143	1325.17956636532	139.612232169382	2401.76672648099	814.634873030156	152.392340469313	1171.01513789499	632.458396126858	128.863388764279	1406.17959851916	969.129692902188	141	1919.41575431244	344.011576079321	127	895.679126071017	684.399603463935	188	1144.50520603797
295.042833722609	141.341630085202	600.415198145946	1458.98404116913	245.240213806155	2107.93198601612	676.484112102728	141.005977475148	1303.58607733987	1030.02532747719	165.3735736887	1504.02278178788	1112.43788357739	130.260353293398	2510.12967727617	1119.85836383093	154.159532940102	1738.2069029067	655.008423814052	128.466128795371	1194.19138313635	1206.70790773191	174	1718.30781465792	899.221749624191	141.898917788843	1609.18030048824	1536.05844512188	188.816514114655	2234.49327742065	1324.96752323667	139.61005211862	2400.92106816021	814.770947907963	152.388644620778	1171.13129467574	632.27070281132	128.882067301247	1405.43361477792	968.969912607797	141	1918.94988555911	344.151382876298	127	895.896304436709	684.297486112367	188	1144.29921854097
295.080902728005	141.340476806789	600.407680500161	1459.12093163711	245.515214802693	2108.48707374498	676.563065658966	141.001327222897	1303.43209873237	1029.99338737904	165.424196363018	1504.14310883426	1112.58891065475	130.245970034358	2509.52754032707	1120.04536295311	154.154188327703	1737.9484013661	654.700667444845	128.515271291671	1193.10737787627	1206.65262096118	174	1717.43971354857	898.927811361309	141.886102621199	1608.13617872548	1535.45587660692	188.823618472186	2233.23359655859	1324.82134186921	139.605837309574	2399.62910265998	814.959195717646	152.385497214595	1171.16671654996	632.088583086487	128.893469370443	1404.51060653366	968.885171313855	141	1918.48686287681	344.322476501887	127	896.126612768991	684.245147320241	188	1144.06963033406
295.136082178973	141.343990448845	600.383445011822	1459.41154583939	245.815308863668	2109.10749605867	676.668652402776	141	1303.23998782241	1030.02746916455	165.492349449347	1504.21979299505	1112.89629277846	130.22729149739	2508.60767196176	1120.43246504494	154.15663762581	1737.63535993873	654.602467169298	128.55790263594	1191.99322747741	1206.80678664663	174	1716.44738801386	898.699392226488	141.881540282327	1606.85945668636	1534.93500677672	188.836166578886	2231.75168982615	1324.75747935998	139.603459711174	2397.90149665513	815.194732493384	152.387681955067	1171.10195076156	631.895205622904	128.8954651769	1403.38183496138	968.844854095815	141	1917.99388113507	344.521579393569	127	896.383980593102	684.228239094266	188	1143.81024220629
295.2034130212	141.357301101939	600.337598476379	1459.80007039182	246.12284290898	2109.73957434421	676.786966276367	141.001327222897	1302.99509714024	1030.10584989508	165.570979661445	1504.22222423254	1113.35679798799	130.207612840713	2507.40662645698	1120.99195822476	154.165584884303	1737.27601622626	654.732030193133	128.593975834879	1190.90966734926	1207.15185201092	174	1715.34416599481	898.546552111044	141.884775398303	1605.35475562899	1534.50823658661	188.850573596635	2230.03790298738	1324.78351699237	139.605027802569	2395.77101910279	815.466340457693	152.397762695268	1170.91021149988	631.668386417076	128.889166851605	1402.02735593245	968.802208497996	141	1917.42662072981	344.736838600266	127	896.66433652181	684.219722507749	188	1143.50691490842
295.273616460043	141.38373441055	600.265625267936	1460.21206217046	246.426487864671	2110.33314714502	676.899700486298	141.004650252251	1302.68436749159	1030.19177101522	165.64997740366	1504.12001528629	1113.94090160546	130.190149854555	2505.99786705041	1121.6644101599	154.178400051946	1736.88062049765	655.085536301373	128.621876390281	1189.92253427577	1207.63881368275	174	1714.15346945819	898.474969546304	141.894267536593	1603.65310616653	1534.18094498089	188.863388764279	2228.11201115093	1324.89574692893	139.611703112635	2393.29406517603	815.756631412391	152.416467424681	1170.56819706132	631.388406214839	128.875418183627	1400.43815501392	968.706527988101	141	1916.73355512668	344.949192995787	127	896.942304937986	684.187542822978	188	1143.13791759703
295.334760968306	141.424536164701	600.16510297754	1460.57144682898	246.722796219006	2110.84168688073	676.986654081506	141.011749802608	1302.29599879871	1030.24297884494	165.718936522225	1503.88354087664	1114.59977632838	130.177767964193	2504.46178850311	1122.37134205513	154.192693669294	1736.44877785533	655.638327383289	128.641112342364	1189.0829212397	1208.19890319236	174	1712.89838781272	898.490393170591	141.905846523203	1601.80592001796	1533.95614309499	188.872222622371	2226.02690327551	1325.08714330868	139.62223519851	2390.54579640073	816.047878907882	152.442530641343	1170.06182374769	631.042642651496	128.857673146993	1398.61810252999	968.51073949126	141	1915.8663361868	345.137050120067	127	897.172022016307	684.098618220156	188	1142.68050479164
295.375119530629	141.476843340103	600.036654007064	1460.81418922925	247.014142390541	2111.22545608036	677.031846713407	141.023779221956	1301.82252742776	1030.22030525609	165.769986911604	1503.48832701246	1115.2678607378	130.171020884849	2502.87519709994	1123.02370604812	154.20560155749	1735.96958553675	656.342253282642	128.650405118721	1188.41762633681	1208.75028523978	174	1711.59669210629	898.597097257396	141.915063851928	1599.88560762298	1533.83222968445	188.876358924871	2223.86766383089	1325.34870995729	139.63249942797	2387.61766666106	816.324028177461	152.473316259107	1169.39204485439	630.632137376819	128.83948960824	1396.59307740755	968.188882495233	141	1914.79451167305	345.280170587457	127	897.300150643838	683.933018148653	188	1142.12020258404
295.387506983211	141.534752801963	599.881050674762	1460.90288998101	247.305094909085	2111.44810557313	677.028873900827	141.04072345119	1301.26265817627	1030.09913605963	165.798532845125	1502.91969464086	1115.87779011783	130.16821661242	2501.29117636063	1123.54017196981	154.215241447818	1735.41554593252	657.131644890871	128.649609873542	1187.91845079832	1209.21061432159	174	1710.25513264545	898.800241031252	141.91855309762	1597.97011064149	1533.80665408755	188.876872874622	2221.73162167238	1325.67695916833	139.640132724784	2384.60542249008	816.575011033054	152.507106376278	1168.57467037396	630.173816780848	128.823618472186	1394.40813871837	967.737490703195	141	1913.5083615941	345.36430856938	127	897.275970450115	683.685379430974	188	1141.45596728214
295.37091048739	141.588880662487	599.700751700693	1460.83107010285	247.60061912424	2111.47909465862	676.982357304385	141.061156926116	1300.62574155167	1029.87537472748	165.801855874479	1502.17905000039	1116.37475424271	130.166134571274	2499.73284467805	1123.86394532096	154.220080274945	1734.74576808684	657.933934892147	128.639072562831	1187.5442633939	1209.51391182137	174	1708.86870584374	899.101714491281	141.915063851928	1596.13714948769	1533.87016673024	188.875138566887	2219.71479028063	1326.06954999371	139.642960755922	2381.60542628508	816.793856796338	152.541878544765	1167.63549344796	629.700103268517	128.811863862404	1392.13566618834	967.182891410798	141	1912.03233534686	345.386353483601	127.001327222897	897.068570701645	683.37182301477	188	1140.70970883252
295.332488048418	141.632403786447	599.506054785833	1460.62480786302	247.903904368008	2111.30457287028	676.909424505161	141.082403674188	1299.93777848294	1029.57023049637	165.781736714212	1501.29533204125	1116.72952206428	130.162239137273	2498.21069263021	1123.97608116876	154.220340094979	1733.92868516698	658.680176202718	128.622929558659	1187.2326558243	1209.62544711489	174	1707.43874616596	899.498891353985	141.905846523203	1594.45408070279	1534.01223927042	188.874352818591	2217.89756866618	1326.530239339	139.64065404354	2378.71734589779	816.979022124116	152.578706561954	1166.61406421935	629.255835723398	128.80343708915	1389.88410777506	966.57828737051	141	1910.44087580849	345.353089734035	127.004650252251	896.678857975258	683.026947617501	188	1139.93105649739
295.286149311173	141.660949719968	599.31313028717	1460.34226683872	248.213257700076	2110.94037638427	676.838463484066	141.101082211157	1299.24646116853	1029.23276634289	165.742715744182	1500.3313901099	1116.9450509129	130.15462082999	2496.74083499938	1123.90285439473	154.215777756107	1732.95818997897	659.312209589508	128.604603562277	1186.9101068849	1209.55220797263	174	1705.98758700402	899.980470756247	141.894267536593	1592.96972175795	1534.2179364038	188.876890030076	2216.3344220077	1327.0618090654	139.636280638683	2376.03969525505	817.133240985956	152.61917019311	1165.55789663882	628.893297198972	128.796516220876	1387.79735616697	965.995381524189	141.001327222897	1908.86150928049	345.280454152539	127.011749802608	896.14679120755	682.700316075676	188	1139.20009415161
295.250463718777	141.673127237637	599.147643847895	1460.05746983226	248.522904716581	2110.44344234328	676.80465940293	141.113897378801	1298.62296930321	1028.92986242195	165.69070085485	1499.38821222273	1117.06262401955	130.143566162526	2495.3648066119	1123.71965915668	154.208592330198	1731.87530471119	659.79373899099	128.590308216616	1186.50854128839	1209.35081126538	174.001327222897	1704.57391111652	900.525527003728	141.884775398303	1591.71824616709	1534.46696013652	188.8861026212	2215.05903260693	1327.66027953145	139.632164112411	2373.68026993595	817.26006275973	152.664347389945	1164.52572413063	628.663001325854	128.788343577339	1386.04964950774	965.511858666739	141.004650252251	1907.47114265273	345.189270630659	127.023779221956	895.545022338236	682.445185867497	188	1138.62008015186
295.242203023919	141.673816810559	599.045532578136	1459.85054503288	248.82511941837	2109.91832366118	676.843693407919	141.118459717673	1298.16116060714	1028.73747512659	165.633463810458	1498.60110433408	1117.15018484008	130.130297433659	2494.18184345576	1123.53476983054	154.201213163101	1730.7942971413	660.108941662775	128.583265376432	1185.98817142103	1209.1166185561	174.004650252251	1703.31290641797	901.10300725969	141.881540282327	1590.72643982405	1534.73804773305	188.903568041094	2214.10104400693	1328.31449026858	139.632224500939	2371.77206299546	817.368019376847	152.714628175127	1163.59543075738	628.607290048791	128.776060028274	1384.82616472849	965.199787605537	141.011749802608	1906.47294623877	345.100026135489	127.04072345119	894.964313843122	682.30935951061	188	1138.30031057912
295.275194767425	141.668302507052	599.045072704428	1459.78963163377	249.111771989754	2109.50266727086	676.985887771048	141.113897378801	1297.96118860821	1028.72650002578	165.580730598683	1498.11702238851	1117.28206482338	130.118809488912	2493.33414627289	1123.4638087769	154.197431834923	1729.88761980381	660.259401615231	128.587676488498	1185.34609222993	1208.95870968588	174.013077025505	1702.35911546553	901.67602987577	141.8861026212	1590.02219724498	1535.01060662096	188.92934612842	2213.49531029432	1329.00259914288	139.638114062708	2370.4671103578	817.467380790556	152.768169922447	1162.85667939854	628.751664746862	128.758063385709	1384.29657739439	965.110028376121	141.023779221956	1906.0607808478	345.02816227532	127.061156926116	894.494988550469	682.325765197263	188.001327222897	1138.33746869279
295.355128513283	141.662861699332	599.180851112043	1459.91764100468	249.376682814851	2109.33662031206	677.247702600441	141.101082211157	1298.11075779601	1028.94285065211	165.540351406137	1498.06711665865	1117.52434382825	130.112160371292	2492.98312855459	1123.60582637777	154.200689668575	1729.35754543685	660.262222073388	128.60248578391	1184.62474945947	1208.97913861259	174.028429474207	1701.88132705761	902.208321982858	141.898917788843	1589.6346735058	1535.27092839062	188.963949518737	2213.28212092457	1329.69656564117	139.650956755202	2369.91471335613	817.569928186268	152.821360807868	1162.39913185493	629.09814972124	128.732979658532	1384.57950986054	965.262692729247	141.04072345119	1906.37454529064	344.979820516848	127.082403674188	894.206666534981	682.504780111935	188.004650252251	1138.78965942951
295.479570443705	141.66156066888	599.476165527891	1460.23736687791	249.616270792532	2109.54053805977	677.626798237539	141.083730897085	1298.67002498609	1029.39707478987	165.518349839815	1498.53989202712	1117.91584821861	130.113630179914	2493.27816454868	1124.01576768156	154.213929076511	1729.39352585193	660.145541900602	128.623191057381	1183.90973741198	1209.24281760503	174.052473253798	1702.02693141244	902.668457826315	141.917596325812	1589.59824842327	1535.51198855394	189.004650252251	2213.50933706653	1330.36269867083	139.670032007613	2370.24642580135	817.684827726143	152.870895399474	1162.29783486228	629.623553438846	128.699708298286	1385.7073087985	965.639950655989	141.061156926116	1907.45478470859	344.953125350376	127.101082211157	894.131184496941	682.830018342171	188.011749802608	1139.65711314375
295.63889711123	141.665760488393	599.932403510703	1460.71396602806	249.829388899762	2110.16248284336	678.101650115416	141.065807178367	1299.64273224358	1030.06134356288	165.517567566288	1499.54606845853	1118.45890182576	130.125659599262	2494.29855327138	1124.691140806	154.238491613027	1730.11528751967	659.944244382776	128.643367840759	1183.31157630909	1209.76449796746	174.084936148072	1702.87462243919	903.039514654035	141.938843073884	1589.94966208155	1535.74197953476	189.049127506768	2214.22255061948	1330.97254761395	139.694106786823	2371.54289109809	817.817455817628	152.913736629031	1162.59523752642	630.281982815945	128.658831891976	1387.62028726765	966.192123388475	141.082403674188	1909.23587896719	344.938843073884	127.113897378801	894.263627635992	683.265041286484	188.023779221956	1140.88139738572
295.819959115919	141.673477008876	600.527416618288	1461.28162584864	250.016214969916	2111.17299411189	678.633684075772	141.052473253798	1300.97547776437	1030.87116237839	165.536598574269	1501.01573142821	1119.1241368142	130.148233570231	2496.03627987635	1125.57711001597	154.27266520083	1731.54261141918	659.699821751893	128.654544480134	1182.94611311961	1210.50827822756	174.123127125378	1704.41297481595	903.32017034155	141.95927654881	1590.71612138154	1535.97737080288	189.094433093536	2215.44545547273	1331.50428107374	139.720797353637	2373.80376015149	817.964380880699	152.947526746202	1163.28489241983	631.009577617933	128.611016618573	1390.15765332741	966.839328706788	141.101082211157	1911.53474803926	344.923747524246	127.118459717673	894.562042649616	683.754825835998	188.04072345119	1142.34581260968
296.00692873436	141.682341866587	601.216771563329	1461.85397151419	250.177694551338	2112.45255890577	679.174874782195	141.048885666809	1302.55911314987	1031.74315524004	165.571609049424	1502.80203610928	1119.8610574059	130.178639192132	2498.37452644417	1126.58398245245	154.311777212725	1733.57726974149	659.460223911437	128.651193995503	1182.90831129254	1211.40191916549	174.16356636017	1706.5268878545	903.524934409999	141.976220778044	1591.90114933019	1536.24193405682	189.138482632993	2217.15701526894	1331.94609644224	139.746927911976	2376.92301995488	818.114051841939	152.971570525793	1164.29690446897	631.734725351964	128.560644995112	1393.07481335017	967.489607605031	141.113897378801	1914.07538322137	344.895318050039	127.113897378801	894.956142636578	684.23746569239	188.061156926116	1143.89064100899
296.185673325591	141.690854515393	601.939218734321	1462.33970248637	250.310527158655	2113.806799782	679.676768376616	141.058450728946	1304.24058142989	1032.58524272839	165.61733285437	1504.70385076972	1120.61115977714	130.212701107848	2501.10460225191	1127.6077692164	154.349856517944	1736.01937407014	659.279623433931	128.630669478713	1183.25883672704	1212.35532994628	174.20095130524	1709.01645710364	903.676538125358	141.988250197392	1593.48288068044	1536.55389289075	189.17837733427	2219.29184810898	1332.29356637027	139.769817995491	2380.70525476202	818.242522570486	152.985595751598	1165.51193112496	632.387302418148	128.513682432109	1396.07567460325	968.049367526215	141.11978694057	1916.5297830545	344.844863320374	127.102409434054	895.361508167629	684.653532204146	188.082403674188	1145.33669563957
296.344048028482	141.698581415902	602.624716313928	1462.64932287363	250.408960486239	2114.99518945338	680.095328962104	141.082207233226	1305.84530508726	1033.31186951162	165.668280544424	1506.49285492615	1121.3200177553	130.244648373683	2503.95824656561	1128.54939963786	154.380997751542	1738.59894162614	659.215787118145	128.59703736551	1184.01807704594	1213.28031406527	174.231291731438	1711.62835233809	903.802616254117	141.995349747749	1595.39976668569	1536.92869551308	189.21261319447	2221.72661413753	1332.55101113577	139.786409684139	2384.87118714779	818.32395403743	152.989372272602	1166.76885184711	632.906624920249	128.477893449568	1398.84538616983	968.43782747881	141.118547631051	1918.56019083008	344.768231973646	127.087053926439	895.691146620947	684.952374587374	188.101082211157	1146.50642291945
296.47165452054	141.706136206171	603.204089559949	1462.70166014281	250.461353205511	2115.76171605755	680.394037411319	141.117932698753	1307.19410468788	1033.84986379167	165.718500941078	1507.94224540205	1121.94518499134	130.269845431688	2506.64943678963	1129.32756873059	154.400054951969	1741.02085319216	659.320434833028	128.558013266994	1185.1632246372	1214.10323732948	174.251573979557	1714.09686206245	903.92502010718	141.998672777103	1597.54609801597	1537.36995833438	189.238758811913	2224.28721626131	1332.72314351576	139.793686151911	2389.08657460773	818.32818504413	152.982272722244	1167.8872609808	633.246377670802	128.461029892803	1401.0964789353	968.59576053508	141.112832013765	1919.87723276373	344.665822539592	127.074233951621	895.868469112683	685.098887815569	188.113897378801	1147.25277646578
296.560354841336	141.714964502041	603.619286388653	1462.43343052271	250.451579550597	2115.88951237362	680.549974057708	141.160934632052	1308.13395957627	1034.14937614536	165.763171936784	1508.86498442059	1122.45532316498	130.285349107197	2508.91293542533	1129.88575338788	154.403896738248	1743.00966262666	659.627134089073	128.521562238114	1186.623348339	1214.77153123056	174.26026538002	1716.18218894918	904.052018666103	141.998672777103	1599.78469990616	1537.86403939959	189.25437581825	2226.7792095857	1332.80658858157	139.789154812658	2393.0075287675	818.228856770598	152.963143752539	1168.70147631561	633.377859686621	128.467727165497	1402.59977822012	968.489023106188	141.106182896144	1920.28029485508	344.541502581081	127.070480148294	895.836701077345	685.075318157851	188.118459717673	1147.47601711144
296.60616655966	141.724809180918	603.833348006474	1461.80758125339	250.363170187397	2115.24262187649	680.552394104457	141.204027953498	1308.56028499701	1034.18836266095	165.797983108528	1509.14404966451	1122.83485198545	130.290454529785	2510.54871661079	1130.20051361911	154.392863963839	1744.35912059816	660.142689029663	128.496325555816	1188.28702212314	1215.2640311957	174.257457979105	1717.71307946776	904.178737815802	141.995349747749	1601.95150502879	1538.39199083148	189.257370065727	2229.00689467139	1332.79571180298	139.771575992362	2396.31367024107	818.012196228041	152.930847074603	1169.0857252032	633.290572068365	128.500190059771	1403.20968203367	968.111654128956	141.101880377306	1919.68401104758	344.399263641452	127.082229950902	895.561859428617	684.882018529021	188.1138973788	1147.1374316222
296.608248600807	141.73309133062	603.834454019635	1460.82339360731	250.181726722836	2113.79266387559	680.404813473399	141.238241096022	1308.431780897	1033.97650152194	165.820816899532	1508.74969109087	1123.07964415393	130.288427793283	2511.46149166179	1130.28267951734	154.370831467471	1744.97774789131	660.838126200273	128.486685319205	1190.01467871702	1215.58561418605	174.244642811461	1718.61408206411	904.287370469046	141.988250197392	1603.87929845399	1538.92807308181	189.245708176497	2230.81152853149	1332.67925395114	139.741476434663	2398.756535945	817.68183392788	152.885042597189	1168.98238766537	632.99487060553	128.555727543975	1402.88417051651	967.487876039282	141.101880377306	1918.13705841919	344.244642811461	127.114413228436	895.040084271635	684.538506412919	188.101082211157	1146.26615922908
296.570463811809	141.734284163753	603.63543166248	1459.52070891107	249.901699510363	2111.62719135417	680.122746937143	141.256659812956	1307.77879724562	1033.55246801791	165.82871725729	1507.7465185926	1123.19733265255	130.282398207619	2511.66187445629	1130.17362789965	154.343555133735	1744.89544042222	661.651910553688	128.493243394961	1191.65450097853	1215.7623472567	174.224209336535	1718.91046526441	904.355362643292	141.976220778044	1605.42118965174	1539.45107874236	189.219108651547	2232.09673144621	1332.44925599681	139.701035521183	2400.19244105929	817.262773412447	152.826682702592	1168.4146284307	632.5179306165	128.628382784233	1401.67990971174	966.665622316221	141.107510119041	1915.80361591466	344.082403674188	127.169283877341	894.291737975198	684.077724904827	188.082403674188	1144.94971145
296.499451906994	141.723475102389	603.274005989539	1457.98056739683	249.528210897325	2108.93178042909	679.732093623847	141.254904874998	1306.6945751248	1032.97875015227	165.820705227444	1506.27742559993	1123.19894043034	130.277629817367	2511.26429847341	1129.93202103721	154.318353268557	1744.25424798926	662.496622489345	128.51411014717	1193.06743447898	1215.82880787479	174.198833526873	1718.7160175991	904.362203810557	141.95927654881	1606.47122331445	1539.94731265543	189.179356823755	2232.83716152317	1332.10592792003	139.653658145199	2400.59141172954	816.79763043	152.759390608606	1167.47537480363	631.903749723129	128.709983485098	1399.75036132156	965.717549378618	141.118809488912	1912.94310887707	343.917596325812	127.245796311072	893.364933310686	683.545947685644	188.061156926116	1143.32555379666
296.406363191809	141.696108293444	602.801559892443	1456.32064652559	249.078342492057	2105.95280286555	679.269360874776	141.232357096474	1305.32043365152	1032.33639792169	165.796661447853	1504.53582387067	1123.09762975791	130.277203780994	2510.43695357407	1129.62151384683	154.30098300295	1743.25576148083	663.274404384894	128.543446636161	1194.13852784715	1215.81787451728	174.170932971471	1718.18940482127	904.297278995203	141.937515850987	1606.97472409206	1540.41219196775	189.130209520281	2233.06511910815	1331.65990991286	139.604603562277	2400.02468923057	816.338926623168	152.688334459362	1166.29963112072	631.205134601567	128.790609503652	1397.31763923197	964.721813246681	141.13494768591	1909.8614051907	343.755357188539	127.33836070711	892.327686250949	682.992085997521	188.04072345119	1141.55564450161
296.30204593425	141.650675238578	602.274606045374	1454.67028228594	248.577646537944	2102.94964200349	678.774732539339	141.192431811433	1303.81795061187	1031.70708933644	165.755530911825	1502.72938646985	1122.90771071197	130.283067150318	2509.37408770495	1129.29907316695	154.294816952926	1742.11929084987	663.894200498285	128.573346056932	1194.79684855872	1215.75317969524	174.142326853007	1717.50447225209	904.160683943476	141.912946073561	1606.92981483489	1540.8451497728	189.076867408053	2232.84993261156	1331.13138944475	139.559579630076	2398.63341714868	815.935902884647	152.620736556192	1165.0300300669	630.475775671202	128.86259059813	1394.64189127929	963.756779752709	141.155315965134	1906.86411532987	343.600736358548	127.439355004888	891.260259904632	682.461835521059	188.023779221956	1139.80406503334
296.197361077	141.590835235536	601.748668671362	1453.15193225322	248.058450728946	2100.15488177835	678.291149951768	141.143132885243	1302.34976254926	1031.16604157488	165.69901699705	1501.04864017468	1122.64309307604	130.294314226566	2508.26052674809	1129.00867224061	154.298964478817	1741.04429522722	664.286988796835	128.597587052481	1195.01667732626	1215.64878267245	174.114159236662	1716.81668756934	903.962214907755	141.887167986235	1606.38865634789	1541.2463096366	189.025106444853	2232.28238239035	1330.55170617826	139.523956863874	2396.61941983444	815.628440969558	152.564680315064	1163.79798634562	629.767207493949	128.917770049098	1391.99473046137	962.890448350043	141.178400051946	1904.22413003139	343.458497418919	127.536940242208	890.247768231947	681.993091520755	188.011749802608	1138.21719037254
296.101336202931	141.523173815352	601.269383106441	1451.866970041	247.552119139194	2097.74368448807	677.858323185996	141.093455641879	1301.05377448233	1030.77512289747	165.629971643795	1499.6406326599	1122.31987427748	130.307394021418	2507.25316012915	1128.78197895323	154.310048467212	1740.18942412589	664.413543886917	128.610754760711	1194.81661736885	1215.51279024992	174.087053926439	1716.24772479055	903.716928884098	141.862323399243	1605.44063846151	1541.6109733625	188.980256097996	2231.45371139995	1329.95693408774	139.503783208982	2394.21197555144	815.442897005361	152.527562430938	1162.70452074769	629.12360882382	128.952516025141	1389.62321238411	962.173808999035	141.202962588463	1902.14646100543	343.33285023751	127.618805570281	889.370085834323	681.612184811077	188.004650252251	1136.90882925286
296.021073024785	141.458833745833	600.870446518553	1450.87655749447	247.088740431139	2095.82091119524	677.508382958424	141.05316282672	1300.03275935949	1030.57283141763	165.554841464447	1498.60294050672	1121.95338866034	130.319514413057	2506.47488900498	1128.63592486884	154.324164665308	1739.66637406593	664.26350985242	128.612050983989	1194.24718633412	1215.3490109256	174.062484149013	1715.87974049237	903.434864342194	141.840816831137	1604.20392550214	1541.91641604804	188.947347460694	2230.45002060807	1329.37559222346	139.502818709029	2391.65722573213	815.38302199308	152.514568511637	1161.81930532496	628.576932495963	128.965872667385	1387.7259550143	961.638659364166	141.225964274493	1900.75594554777	343.227117774103	127.673300960924	888.690226797643	681.332463407789	188.001327222897	1135.9501131852
295.959102825523	141.407513632507	600.577703126631	1450.19896086105	246.69010413984	2094.43657138475	677.262661491562	141.029227640356	1299.35622020415	1030.57698917731	165.482014783014	1497.98900708612	1121.56411988354	130.325812738352	2506.03489695744	1128.58345689308	154.33756254096	1739.56492974149	663.852485901023	128.602928605968	1193.3921341755	1215.1679204725	174.04072345119	1715.77691989736	903.120153640681	141.824945695083	1602.80960237874	1542.13271254151	188.928153295286	2229.35611721089	1328.83083160334	139.52158495579	2389.21006943533	815.440516418425	152.527562430938	1161.19207432825	628.150359151649	128.958493500288	1386.43559514703	961.298356947394	141.244642811461	1900.09482205887	343.143386877018	127.691979497892	888.247224834393	681.157461609296	188	1135.36995947419
295.915317843702	141.375476774605	600.404650190393	1449.81233057431	246.369379668622	2093.59059399939	677.127530433858	141.024149673044	1299.05504138726	1030.78067772897	165.421379534793	1497.80860289525	1121.16610607496	130.326772431131	2506.01916483617	1128.62387237848	154.349224430191	1739.94479013268	663.211204952059	128.588781408253	1192.35036263043	1214.97741815231	174.023779221956	1715.98055080164	902.768156256925	141.815186891758	1601.38861724219	1542.22283117549	188.922697010799	2228.254460818	1328.33179972406	139.557375617019	2387.11088122912	815.595046337403	152.563353092167	1160.85500169415	627.856138400683	128.934170103957	1385.80776385325	961.15064935505	141.255703041147	1900.12673840558	343.083557173799	127.671546022966	888.053107910359	681.082258468013	188	1135.15917594773
295.887429844096	141.363467151963	600.358053050109	1449.67038790273	246.131556998294	2093.25254123357	677.095521634658	141.035529024564	1299.12826799902	1031.15512586321	165.379867206822	1498.03946234335	1120.7694639097	130.322031410175	2506.48986161973	1128.74691288299	154.358104609114	1740.83565059343	662.377059427753	128.574144223082	1191.23197346541	1214.78639302131	174.011749802608	1716.51440446381	902.371931476321	141.811863862404	1600.05617298235	1542.15624586041	188.92934612842	2227.22083147466	1327.88077633526	139.604336501333	2385.55477077641	815.820967311888	152.616086303941	1160.82292314848	627.692645102302	128.898119622694	1385.82945331128	961.174027797563	141.25613631843	1900.75745352594	343.046156751962	127.614676508691	888.093436074754	681.093467003535	188	1135.28045872945
295.871117702616	141.366798047403	600.435018685924	1449.71753954032	245.973802034875	2093.38031033188	677.147716013083	141.058080277857	1299.55079530226	1031.6582750013	165.363729009824	1498.63409644645	1120.38435521458	130.314065856715	2507.47737966859	1128.93774588759	154.363472980223	1742.22469896205	661.393652316177	128.562687277954	1190.14268031314	1214.60743766874	174.004650252251	1717.37773230436	901.920427721425	141.813195892475	1598.90693464893	1541.9100290273	188.943493326134	2226.32735514852	1327.46670196399	139.652805434798	2384.67780707029	816.086580509988	152.676584656754	1161.09338677806	627.649461917967	128.855112176798	1386.42325869169	961.335391371543	141.244106899082	1901.85055464949	343.029477080364	127.529473161733	888.333748264416	681.172441754917	188	1135.67775237878
295.862323399243	141.376267468017	600.626000148054	1449.90821995641	245.887964700279	2093.92144290936	677.258267762318	141.083280464348	1300.27352874384	1032.24155717708	165.3735736887	1499.52416428602	1120.01662792022	130.305016423017	2508.9538825136	1129.1771177088	154.36364087525	1744.03688253827	660.304398204323	128.555357092886	1189.16724280259	1214.45366320959	174.001327222897	1718.53179177052	901.406421156723	141.817037609181	1598.00144084935	1541.47674847138	188.960603771707	2225.62059764297	1327.07239149619	139.69488793546	2384.51331810621	816.360585927925	152.73561138665	1161.63460532451	627.704928492623	128.811863862404	1387.47048601979	961.590318961167	141.220957065105	1903.25312495676	343.029756697104	127.427693115658	888.7278768036	681.296777038571	188	1136.28519036942
295.858194337653	141.383222394823	600.912274272393	1450.21794599373	245.865701276096	2094.82633135878	677.399695245432	141.103474799089	1301.23519662823	1032.8592431778	165.406822331271	1500.63333256661	1119.67534076126	130.297116065259	2510.84233929203	1129.45274056823	154.357474825226	1746.14758961847	659.155951577282	128.552274932031	1188.36617548565	1214.34322867652	174	1719.90506247088	900.827732723418	141.820272725157	1597.36677226047	1540.86428233876	188.974893555147	2225.12143883945	1326.67922829016	139.723475102389	2384.99324861859	816.612599472918	152.784632028505	1162.38847419927	627.830497503628	128.773270607435	1388.82256292628	961.889845415743	141.189463360493	1904.80691226534	343.042050674087	127.322222510112	889.225284334914	681.442641538435	188	1137.0325048007
295.855112176798	141.380140233968	601.270998347821	1450.6416643748	245.899211071105	2096.04247558076	677.546402273339	141.113809465422	1302.36770015974	1033.47336115485	165.457082282644	1501.8832925676	1119.37102584178	130.291343737799	2513.02045134075	1129.76078696492	154.342756967586	1748.395705792	658.000028655053	128.552153026155	1187.77482431947	1214.29765751104	174	1721.39825297953	900.189673019198	141.821360807868	1596.99784829463	1540.09515840951	188.983599945141	2224.81980127728	1326.27256641661	139.736831744634	2385.96267774001	816.820230429915	152.819235418822	1163.27341833775	627.991777278388	128.74386368157	1390.3178732164	962.18533407232	141.155310402913	1906.36378365913	343.061156926116	127.224463328309	889.777133003989	681.586259452338	188	1137.84548387432
295.850461924548	141.364405993322	601.672595481116	1451.1868517305	245.981497510984	2097.5072499719	677.678396133315	141.112570155904	1303.59818306687	1034.05480554586	165.515962592907	1503.19536835913	1119.11409908535	130.287214676209	2515.33897965744	1130.10237336069	154.318620467443	1750.61164513675	656.894057785225	128.552125501305	1187.41332323133	1214.33531204211	174	1722.89772743256	899.508197803888	141.818792596764	1596.86831708852	1539.20791201875	188.983599945141	2224.68602534792	1325.84829692406	139.73561138665	2387.21983772178	816.968909648296	152.836693597807	1164.19976909924	628.152052194105	128.726919452337	1391.79630982072	962.432117965106	141.125659599262	1907.79030555677	343.082403674188	127.143386877018	890.33661238757	681.706719714069	188	1138.64774307203
295.840467059898	141.338801850479	602.082722466561	1451.85763295554	246.108025968677	2099.14290546717	677.779659678439	141.101082211157	1304.85119871564	1034.5802579919	165.574585366451	1504.49026609614	1118.90791907375	130.283764985236	2517.6394392242	1130.47520013807	154.284830350272	1752.64010512752	655.897655861359	128.551850691739	1187.29371287815	1214.46257894883	174	1724.29145759347	898.812947788453	141.812654417874	1596.94128340587	1538.2636467451	188.974893555147	2224.68476027015	1325.42200612285	139.724384940626	2388.55725928239	817.058856515589	152.838282319426	1165.08206515256	628.277249080719	128.723863483927	1393.10888455898	962.595415215874	141.105226124336	1908.96956682284	343.101082211157	127.082229950902	890.861583533317	681.787084233901	188	1139.36003773354
295.820816899532	141.307481934796	602.465739921213	1452.63993345771	246.272491477544	2100.85152003975	677.839336544002	141.082403674188	1306.05078586137	1035.02994000462	165.623569928355	1505.69097859953	1118.7498248051	130.281330676661	2519.76204924823	1130.86941884427	154.243409064164	1754.35498484952	655.067118215002	128.552132346306	1187.41736650535	1214.67156504409	174	1725.47384168349	898.142325262959	141.80465571882	1597.17180069706	1537.33651228856	188.95927654881	2224.77741047776	1325.02096036607	139.710519397478	2389.79311633253	817.098848674417	152.827651892254	1165.84794509942	628.336949267382	128.734110440467	1394.12926637071	962.649853896342	141.09668595068	1909.80593920508	343.113897378801	127.041506499712	891.311272041559	681.815373822157	188	1139.90467393638
295.787560528817	141.277196540084	602.787118071236	1453.49984777473	246.466224319429	2102.52066640603	677.851416041424	141.061156926116	1307.12392636016	1035.38907726015	165.65829354586	1506.72412645526	1118.62215586908	130.279319880672	2521.57098572253	1131.25895406491	154.197890133747	1755.67787702657	654.445236698303	128.554929377825	1187.77686725702	1214.93130135369	174	1726.36550164195	897.541969133876	141.796604134255	1597.51436237733	1536.5110616129	188.938843073884	2224.93456132256	1324.68242624297	139.699181279366	2390.79642345544	817.105718373957	152.809755628812	1166.4471595322	628.311750101978	128.755357188539	1394.76228661472	962.584286741304	141.098803729047	1910.22928804529	343.118459717673	127.019054500653	891.646471074374	681.785332770712	188	1140.21092013841
295.738065491931	141.254416466376	603.018472564641	1454.38553729253	246.678489780486	2104.03649748464	677.814028840381	141.04072345119	1308.00937234803	1035.6500924331	165.676996479193	1507.53203339261	1118.50221244271	130.278508286215	2522.95599743349	1131.6112548455	154.154188327703	1756.57295473296	654.055864214449	128.56335105434	1188.34499526841	1215.20087614412	174	1726.91783889584	897.052055845097	141.7932763673	1597.92692297313	1535.86410776933	188.918923548709	2225.13902418784	1324.43637273707	139.696639260707	2391.49869627346	817.097020239767	152.790621921506	1166.85701560333	628.19423377743	128.784222243893	1394.95209805883	962.402564249767	141.107059686304	1910.19992814961	343.112570155904	127.010627727398	891.832050845895	681.698817190388	188	1140.22531280874
295.67180001474	141.244469088175	603.145658261498	1455.23611252341	246.896792399797	2105.29933953634	677.729248033273	141.023779221956	1308.66325492452	1035.81380886898	165.684091291949	1508.07962901155	1118.36002878816	130.281499058922	2523.84857050486	1131.88696682108	154.119607655062	1757.05272111616	653.894769352208	128.580484217588	1189.07055069348	1215.43040595029	174	1727.11881963825	896.703379743406	141.797835577687	1598.36382706602	1535.45131411767	188.903568041094	2225.37597997188	1324.29823337502	139.70368210089	2391.88244087835	817.085849968862	152.774056355731	1167.07604937087	627.99051032427	128.817037609181	1394.68539601185	962.121144084844	141.115224601697	1909.71373201046	343.095104736009	127.013077025505	891.838616498172	681.562373365469	188	1139.92019985121
295.589396340552	141.248577865824	603.165621942786	1455.98680125304	247.108796693813	2106.23276639961	677.599901651311	141.011749802608	1309.06254382546	1035.88441578523	165.685675206395	1508.35446515458	1118.17055774742	130.288712009681	2524.23514476178	1132.05461581074	154.10003169771	1757.16859042196	653.932709950451	128.605027802569	1189.88655375019	1215.57904237993	174	1726.99931105064	896.512542881416	141.814121526722	1598.78831660097	1535.30332931272	188.897852423808	2225.6413101127	1324.26506402206	139.717435576042	2391.98341037821	817.081718832676	152.762975495821	1167.12883304243	627.718482072473	128.850573596635	1393.99210919331	961.770955326271	141.118459717673	1908.80412596121	343.06600361933	127.025106444853	891.646437750089	681.38996313695	188.001327222897	1139.29841169445
295.492095457573	141.266149113529	603.08935791866	1456.57764637259	247.303010968054	2106.78594554243	677.426762233048	141.004650252251	1309.20188895519	1035.86473835632	165.689539710349	1508.36128891279	1117.91366551907	130.302041127076	2524.14923476785	1132.08953875201	154.10003169771	1756.99030779206	654.120792888586	128.636005829117	1190.71999409528	1215.61448407813	174	1726.62000890139	896.477031525679	141.844162578167	1599.16460182078	1535.41348090851	188.905319504283	2225.92630570076	1324.31159357587	139.732958978683	2391.86140339883	817.0844166361	152.759226430094	1167.04935513367	627.405147641	128.882517733985	1392.93907124266	961.389206725602	141.113897378801	1907.53486929866	343.025627901552	127.045373703441	891.248111609666	681.19894519896	188.004650252251	1138.39474124755
295.383646635115	141.292559288608	602.933518838086	1456.96542030833	247.471022432787	2106.92643894747	677.210706357588	141.001327222897	1309.08706799992	1035.75667410598	165.70183572516	1508.10798762839	1117.57712718467	130.319143824026	2523.65464397983	1131.97479444854	154.118280432165	1756.57670796202	654.40035547514	128.666717260202	1191.4998890918	1215.51967721034	174	1726.04672814026	896.582962477535	141.8861026212	1599.47762633725	1535.74967523648	188.926826072389	2226.22953098343	1324.39839662692	139.744042967078	2391.6034141885	817.087945882046	152.762975495821	1166.87834529743	627.078359954298	128.911618850664	1391.62298266648	961.009556662199	141.101082211157	1905.99318647429	342.974893555147	127.072906728724	890.651599688192	681.005173608834	188.011749802608	1137.27128573094
