Light	Light	Light	Light	Light	Light	Light	Light	Light	Light	Light	Light	Light	Light	Light	Light	Light	Light	Light	Light	Light	Light	Light	Light	Light	Light	Light	Light	Light	Light	Light	Light	Light	Light	Light	Light	Light	Light	Light	Light	Light	Light	Light	Light	Light	Light	Light	Light
Optode1-730nm	Optode1-Ambient	Optode1-850nm	Optode2-730nm	Optode2-Ambient	Optode2-850nm	Optode3-730nm	Optode3-Ambient	Optode3-850nm	Optode4-730nm	Optode4-Ambient	Optode4-850nm	Optode5-730nm	Optode5-Ambient	Optode5-850nm	Optode6-730nm	Optode6-Ambient	Optode6-850nm	Optode7-730nm	Optode7-Ambient	Optode7-850nm	Optode8-730nm	Optode8-Ambient	Optode8-850nm	Optode9-730nm	Optode9-Ambient	Optode9-850nm	Optode10-730nm	Optode10-Ambient	Optode10-850nm	Optode11-730nm	Optode11-Ambient	Optode11-850nm	Optode12-730nm	Optode12-Ambient	Optode12-850nm	Optode13-730nm	Optode13-Ambient	Optode13-850nm	Optode14-730nm	Optode14-Ambient	Optode14-850nm	Optode15-730nm	Optode15-Ambient	Optode15-850nm	Optode16-730nm	Optode16-Ambient	Optode16-850nm
293.893018937706	141.821674417106	599.750747928532	1450.17938629502	246.499918645603	2090.43967258154	674.606579251561	141.444005257139	1305.63614766162	1037.12905749058	166.729638718677	1504.74022393144	1114.28943571922	130.238067372735	2520.16202377471	1130.05973479912	155.383644597288	1744.81595216572	653.682992271339	128.975173171887	1184.96914771413	1220.68812470095	175.546152833332	1723.60546112079	901.193951774333	142.04072345119	1591.53231546757	1540.60099694919	190.648445033076	2217.15387923729	1327.74842532833	139.886102621199	2392.27348896084	819.571556154578	153.242887873503	1164.2208684565	624.832914169514	128.887167986235	1382.59225867056	958.286871052473	141.861263375233	1887.41605597904	341.192572486643	127.263323782165	881.76462751587	680.281966808448	188.689527292496	1131.96965668329
293.97648797693	141.816254560659	600.09890324271	1449.62866333732	246.994744311433	2089.12295604037	674.664764592865	141.458142085458	1306.00736649181	1037.29308356747	166.770880857219	1505.12310536872	1114.78581673754	130.257284255818	2522.2899520922	1130.27888358893	155.394613389201	1746.43706063794	654.547211077135	128.971570525793	1188.49393528989	1221.33366492375	175.66714976249	1726.27105862867	901.813159381504	142.023779221956	1594.91440620317	1541.86532700476	190.735411046137	2220.86983703957	1328.22030530396	139.881540282327	2397.20117508731	819.715075362731	153.257457979105	1165.70214109201	625.604851754617	128.881452368949	1384.18797447263	959.208005341727	141.919097271995	1888.29201073801	341.248420587205	127.285371824873	881.484178253435	680.796812612159	188.800643116544	1132.27468754119
294.037556989668	141.798100342837	600.287584206897	1449.08398656216	247.473683734213	2087.48908033437	674.617989849691	141.472711844777	1305.87067202801	1037.30766219137	166.790795644793	1504.97956246787	1115.13742402388	130.289495058203	2523.7550626292	1130.16345895935	155.389423769749	1747.16549280399	655.649828994458	128.957949325913	1192.19137229028	1221.85568106993	175.766904750749	1728.45887389453	902.472067035943	142.011749802608	1598.28917349349	1543.12047090747	190.798960560186	2224.45023199882	1328.49147484966	139.886102621199	2401.39613031894	819.563199996568	153.262020317978	1166.62556919615	626.3396224759	128.88021305943	1385.49561753349	959.986395232473	141.958493500288	1888.91493868618	341.243851007423	127.302831682546	880.951064450338	681.199826848207	188.901986826423	1132.35135657216
294.072390879089	141.767280714434	600.296251997224	1448.53688359953	247.9375188177	2085.48869595671	674.465455798448	141.48501306267	1305.21740190216	1037.1595974624	166.790276887868	1504.27572995696	1115.33672790829	130.337295342074	2524.2617137763	1129.72914426155	155.37028999287	1746.75401234872	656.971618385983	128.938843073884	1195.75451909044	1222.23261343656	175.837558622329	1729.83926941693	903.164307469029	142.004650252251	1601.34203559532	1544.25740770656	190.833256103491	2227.39286570183	1328.56161902577	139.897590565946	2404.37167582192	819.10726882859	153.255703041147	1166.75074750718	626.979464687769	128.886102621199	1386.34424589924	960.537472085734	141.982272722244	1889.04912813811	341.180951511576	127.317549540186	880.189935863664	681.455888732696	188.990676777823	1132.14377593584
294.083354933401	141.72733479917	600.112141531073	1447.96291790691	248.387197286008	2082.99369163462	674.20686332628	141.492609407324	1304.02843523223	1036.81992454097	166.772091670427	1502.92468658006	1115.37555237172	130.399517633226	2523.52240547438	1128.98685245566	155.33888772603	1744.98972758443	658.45619336237	128.917596325812	1198.84737030829	1222.4108657564	175.870286074239	1730.07200418951	903.885024064216	142.001327222897	1603.74625607726	1545.17350595092	190.832908370079	2229.15692373197	1328.45658045249	139.912946073561	2405.69524365166	818.375511172519	153.238758811913	1165.88828786707	627.462960383047	128.898917788843	1386.54788770576	960.793321121733	141.994022524852	1888.43935946348	341.075739704979	127.330392232679	879.259615827948	681.535980821686	189.064676396433	1131.59067864878
294.076426199041	141.682450459814	599.729197409955	1447.32645748739	248.809696626356	2079.81992999882	673.844298890883	141.490431907762	1302.26753859004	1036.25615142769	166.738420466253	1500.79674062198	1115.23978655677	130.470983099264	2521.28068339334	1127.93805403938	155.298186992516	1741.70285946978	660.011603913246	128.897590565946	1201.13422931948	1222.31345588652	175.858536271631	1728.84444383285	904.62128727488	142	1605.20313897206	1545.76969099619	190.792184918889	2229.23528488684	1328.21051885747	139.927093271276	2405.04032954237	817.423465137734	153.21261319447	1163.92736277883	627.72802408001	128.917596325812	1385.91423241411	960.711930823599	141.998672777103	1886.84140721898	340.954447011051	127.340639189219	878.244734231993	681.418022326397	189.122751161694	1130.62803857016
294.059829703219	141.638114062708	599.146617479459	1446.58707706576	249.174711737378	2075.77039495527	673.382095860508	141.476028018499	1299.8889930873	1035.44523278956	166.692495347528	1497.74903648729	1114.91120732187	130.542917717356	2517.34391161381	1126.58170479962	155.250508614521	1736.79114120297	661.520025864758	128.881452368949	1202.3167216096	1221.85842254855	175.797379345515	1725.91747359	905.346650677618	142	1605.46954548433	1545.96325288362	190.707596504229	2227.22280988347	1327.85231222153	139.935497326854	2402.20477045963	816.320908449046	153.181031780064	1160.84675130362	627.71924298375	128.938843073884	1384.26458149027	960.277857738717	142	1884.04800417489	340.848022137005	127.345987276388	877.234831619125	681.087401322928	189.164426577518	1129.19381300101
294.04072345119	141.600730796327	598.371745746233	1445.70128299252	249.43560596223	2070.69772105683	672.832189223848	141.448136890407	1296.86757142363	1034.38990233298	166.637071194152	1493.68883440014	1114.37342117075	130.607559199455	2511.64961909558	1124.93076953557	155.199885940204	1730.27159816686	662.855959477115	128.869790479719	1202.18692177466	1220.98527269259	175.687329245641	1721.19243713302	906.018543688795	142	1604.40218785984	1545.69695748309	190.579147484127	2222.90297496328	1327.39703558368	139.935497326854	2397.14843329849	815.144875188935	153.147783137494	1156.72348540502	627.395981438989	128.95927654881	1381.46276831543	959.502589192531	142	1879.92358802233	340.78379617331	127.343190244869	876.300268699276	680.537280954636	189.187786366356	1127.23501879659
294.023779221956	141.576188543751	597.42580404861	1444.63091292594	249.543918165165	2064.55882852484	672.215158875465	141.408476232575	1293.22578968265	1033.12791253488	166.575388339774	1488.62541159682	1113.62822121413	130.65830078677	2504.31337960294	1123.0376185176	155.149538075452	1722.32791030879	663.910905076551	128.862323399243	1200.66860310689	1219.68599182356	175.53439061287	1714.76136581759	906.586628557392	142	1601.9823540463	1544.96081667651	190.412519952465	2216.30951557476	1326.85398257294	139.927093271276	2390.01488502103	813.970387381014	153.11925992165	1151.73518450213	626.7438508572	128.976220778044	1377.45914726716	958.42556465002	142	1874.4497519897	340.779472974622	127.329138826619	875.483966907184	679.775620708587	189.191200368001	1124.73158067626
294.011749802608	141.567756963323	596.34736703992	1443.3525292175	249.461776127642	2057.46177399018	671.560551519512	141.360665579308	1289.0629876966	1031.73357968962	166.510091982673	1482.71405794667	1112.70319708467	130.691805774605	2495.64405410798	1121.00695854879	155.103207600203	1713.32877327583	664.611213772152	128.858194337653	1197.83313656156	1218.02383388862	175.351166585386	1706.92766860065	907.001696655167	142	1598.32851315496	1543.80766198212	190.219629842208	2207.76138628821	1326.24022405633	139.912946073561	2381.14778877774	812.875308678755	153.102663425828	1146.15812243465	625.781261885645	128.988250197392	1372.31723150715	957.112659928398	142	1867.75387432436	340.842083902719	127.302033516396	874.796679522854	678.827293665747	189.174256138767	1121.71160624813
294.004650252251	141.576428079845	595.193760366735	1441.86874508703	249.174721967608	2049.67796056912	670.903836754587	141.309145484607	1284.56019037682	1030.30875065893	166.445332480036	1476.26099452549	1111.65513085048	130.707873213679	2486.14948969202	1118.99129553113	155.064502673146	1703.82651838121	664.926298995021	128.856439399695	1193.90056387481	1216.13269123956	175.155403878512	1698.20142829715	907.228200346487	142	1593.68980703979	1542.35672052086	190.017727277756	2197.84557054591	1325.59281942447	139.896263343049	2371.0835830876	811.939237492509	153.102497209489	1140.35281687093	624.565950010217	128.995349747749	1366.23884582791	955.656416790343	142	1860.1321675541	340.965992176735	127.263347540875	874.230013305248	677.739757268063	189.139706465745	1118.27406439835
294.001327222897	141.600736358548	594.029760645446	1440.2185875266	248.698184910264	2041.61286777538	670.280403649731	141.259738361099	1279.95965250006	1028.96704612284	166.385590690195	1469.6842075335	1110.56521128233	130.710169626238	2476.4767937974	1117.16929875017	155.035529024564	1694.49585759803	664.868738293946	128.855112176798	1189.20730445197	1214.20012750169	174.968332572101	1689.23958134583	907.250915931721	142	1588.42150683275	1540.78119613563	189.826526909755	2187.35808824816	1324.97125640351	139.881452368949	2360.52107298303	811.239514102713	153.12311961843	1134.73851809447	623.190052430612	128.998672777103	1359.55949464352	954.172205980431	142	1852.03909865979	341.139989378611	127.215777756107	873.770456683008	676.585589057534	189.092650630728	1114.59606294038
294	141.636099304716	592.923154757579	1438.48103368087	248.074134505016	2033.75072850054	669.72231013505	141.215233581732	1275.53252181064	1027.81705576919	166.335370293541	1463.45244439089	1109.52453562173	130.701029958962	2467.321288559	1115.71033265452	155.016400054859	1686.03067841631	664.481879512307	128.853544085403	1184.15049749739	1212.43119050754	174.809947569388	1680.74885203706	907.0777382046	142	1582.93537941543	1539.27958201742	189.666386969083	2177.18197576615	1324.44884244635	139.869790479719	2350.23172867118	810.840975499588	153.16463362509	1129.73623459836	621.769667227094	129	1352.71245754264	952.78576628294	142	1844.03376184498	341.350321219627	127.165584884303	873.412340738627	675.453960759441	189.04072345119	1110.91535689556
294	141.676712124852	591.929073947667	1436.76759359152	247.364869109951	2026.57262607116	669.254174073471	141.176910446619	1271.53332190862	1026.94516638509	166.300820620519	1458.00404051225	1108.61847807955	130.684085729728	2459.31796451371	1114.7412847622	155.007304698044	1679.03010439584	663.826978565017	128.850573596635	1179.12786387518	1211.0088644777	174.696050190587	1673.37111540323	906.734364759509	142	1577.64748755521	1538.03301413077	189.553816813179	2168.15262043709	1324.08711571638	139.862323399243	2340.95598505947	810.78017553061	153.224012895572	1125.70811724173	620.428440971372	129	1346.16991875685	951.617491660764	142	1836.69911723608	341.584150162549	127.11925992165	873.161842091857	674.438957026682	188.992285517344	1107.49782428397
294.001327222897	141.715605626785	591.086591156511	1435.20676123065	246.64129845468	2020.48880418084	668.892273018552	141.144981298801	1268.16760914344	1026.40620010117	166.287040952922	1453.68137143823	1107.9145248026	130.662089725627	2452.95004993695	1114.32478614053	155.007304698044	1673.90408184317	662.971853595257	128.846011257763	1174.48521615736	1210.06087338091	174.636220487368	1667.5836577582	906.257408472632	142	1572.92533333921	1537.16812848665	189.497737854375	2160.92547450931	1323.92107536305	139.858194337653	2333.28970133505	811.053890677407	153.295641449463	1122.8951424176	619.277991816624	129	1340.38132624975	950.763881861825	142	1830.55760448842	341.832116003364	127.083534456123	873.041100021396	673.623180926862	188.954447011051	1104.5973138327
294.005977475148	141.745792392441	590.415661492155	1433.93169046052	245.974050685624	2015.77728268781	668.648176419293	141.118809488912	1265.56668235832	1026.22134288645	166.29826956487	1450.68269600559	1107.45479835882	130.636097266889	2448.4863586031	1114.45323789489	155.016400054859	1670.82077206458	661.983983112526	128.840728917759	1170.47494784652	1209.64092339313	174.631640993041	1663.63430379091	905.687680690183	142	1569.03711056753	1536.73062387185	189.499736719745	2155.86867490615	1323.94330380067	139.856439399695	2327.58208086654	811.61567483359	153.372425751312	1121.37087778535	618.401808939706	129	1335.69972168636	950.283118960143	142	1825.97740654584	342.088381149336	127.064428204093	873.073690850223	673.063360098021	188.932803547537	1102.40470445161
294.016400054859	141.76247680164	589.920047215582	1433.05097837301	245.425818739236	2012.56032068244	668.528928915497	141.098803729047	1263.78427368232	1026.37840358418	166.336623699601	1449.05012840677	1107.25378348778	130.607123618307	2445.96334252885	1115.05689967216	155.035529024564	1669.70333688864	660.928644912639	128.83643363983	1167.2398414071	1209.72688209522	174.67691436525	1661.52233088562	905.064221808738	142	1566.11877132705	1536.6811413473	189.554084012066	2153.01603158481	1324.10887849332	139.856439399695	2323.88553173625	812.383992143571	153.448484623819	1121.03187528633	617.841807107165	129	1332.33401776497	950.183195790017	142	1823.11680406945	342.347850411664	127.065285721668	873.280616816883	672.778973590893	188.930001708844	1101.01431152551
294.036856247461	141.761821996211	589.592009971892	1432.63480732006	245.044992628312	2010.81214551612	668.536471298543	141.086263370969	1262.8028166396	1026.83611453387	166.401106713984	1448.68280145753	1107.30282494742	130.575282180283	2445.21738064675	1116.02834800309	155.065829896043	1670.28003412203	659.868393293793	128.835192651623	1164.82191269147	1210.23704461287	174.760790489311	1661.03920320222	904.424102887418	142	1564.17876409854	1536.91515552735	189.647437284886	2152.10596142618	1324.35210113033	139.858194337653	2321.98417875372	813.258909025004	153.51717918475	1121.62908448493	617.597066871761	129	1330.32523788009	950.426678074665	142	1821.9128466283	342.605999692005	127.088002278362	873.665402442721	672.752986407537	188.947073406176	1100.40948419425
294.069152925397	141.742174269581	589.416160852816	1432.69854373837	244.861501180745	2010.37370258284	668.66596397736	141.082774125277	1262.54706973182	1027.52786625114	166.486143844604	1449.36971694813	1107.57375553727	130.543179575217	2445.93166824788	1117.24152388377	155.107857852454	1672.15144052771	658.865955544078	128.837760862727	1163.18247693355	1211.04998184783	174.870843648097	1661.82846409684	903.794670685783	142	1563.11077068997	1537.28918651596	189.763761244117	2152.65596876211	1324.60127631764	139.860996176346	2321.45829650422	814.14027959445	153.574499131761	1122.82212895228	617.626965043964	129	1329.55256118909	950.938026821588	142	1822.10200815602	342.857747616046	127.13163707441	874.207642483615	672.938200544874	188.983672602949	1100.46780196921
294.113630179914	141.70516241685	589.37084677747	1433.19480760531	244.885562323306	2010.98202012289	668.903158730056	141.089586400323	1262.89575927266	1028.36777041041	166.583009080793	1450.82382934337	1108.02523546477	130.511771746156	2447.70092099378	1118.56995574442	155.16128787806	1674.8653796196	657.982415141642	128.84537917001	1162.23364908606	1212.03023267007	174.992900449643	1663.46546187995	903.199544006227	142	1562.73256413416	1537.66391303652	189.886369820086	2154.08578095404	1324.80151289674	139.865140227468	2321.79579865098	814.943778310018	153.616775705293	1124.2503179046	617.864071409708	129	1329.75920426776	951.618864168757	142	1823.27722641423	343.093515655251	127.191588749539	874.857502802764	673.267247150634	189.038183470358	1100.98526830427
294.167339822261	141.654020985608	589.424050125587	1434.01449637207	245.105295130877	2012.29504396602	669.218848042255	141.105903279405	1263.68619360281	1029.2514644047	166.680226787995	1452.71569083502	1108.60202554133	130.48448783983	2450.08671549859	1119.89409776662	155.224992385057	1677.9735938619	657.26787603536	128.857761060371	1161.86306638734	1213.04134888066	175.115131126098	1665.52613890221	902.655146160479	142	1562.83145221974	1537.93338723674	190.001073231122	2155.83625474388	1324.92299009798	139.869702566341	2322.50607461062	815.611101410516	153.640850484503	1125.5983786308	618.228024645627	129	1330.60626718151	952.366013607053	142	1824.96537835355	343.30235538763	127.262370089217	875.53662205587	673.66938385691	189.107857852454	1101.7156703692
294.225536559432	141.594736165725	589.533273763396	1435.00629640671	245.490306284585	2013.92124940466	669.573278773778	141.129511685363	1264.72479861064	1030.07124928301	166.765782675539	1454.70466102075	1109.24054358922	130.46454936312	2452.66633030172	1121.10485305213	155.295882317962	1681.07209775405	656.757191986638	128.874352818591	1161.95133839159	1213.96332139856	175.226915533706	1667.63981692317	902.1713290187	142	1563.21194248437	1538.0429294196	190.097474606266	2157.47917905381	1324.9604422739	139.87381134399	2323.21905193023	816.109566150479	153.644339730196	1126.64645814049	618.640572856798	129	1331.74072021479	953.085174828947	142	1826.72024129344	343.471289631674	127.33756254096	876.150183614582	674.080195060573	189.190261526642	1102.42031406027
294.280786768324	141.53492361796	589.64536463384	1435.99884912077	245.994162714051	2015.46187985989	669.917237044008	141.155948052887	1265.80101130924	1030.72536263713	166.828183648775	1456.47380615514	1109.86920704368	130.455415258064	2455.06314568361	1122.10128508399	155.369766498344	1683.82123871449	656.454963470754	128.894267536593	1162.37505329309	1214.69337280734	175.32037943758	1669.51716525133	901.749833511828	142	1563.71719412758	1537.99191589497	190.171106694758	2158.75625575744	1324.92489262891	139.876872874622	2323.71567385846	816.42870542364	153.625993034017	1127.28241529094	619.03757019678	129	1332.84287457048	953.707345887952	142	1828.18409775005	343.589316072064	127.409691783384	876.598843403163	674.453233893091	189.280171836026	1102.90371369519
294.32651057327	141.480707844057	589.702923297089	1436.83936475218	246.56197778023	2016.55559489689	670.203552447841	141.179616643789	1266.70718176133	1031.13926134572	166.859319320153	1457.7589556967	1110.41683603711	130.458930696202	2456.97269270687	1122.79657429588	155.440420369924	1685.95496296527	656.336542059232	128.916269102915	1163.01019904094	1215.15606070758	175.389945981496	1670.96430936482	901.387878633243	142	1564.24922885671	1537.82579967809	190.221031534158	2159.59695454631	1324.83393167441	139.877686147768	2323.92761380182	816.576184864635	153.586078118372	1127.49812777373	619.371876577391	129	1333.67718305931	954.187579126413	142	1829.14425782751	343.649145775283	127.471914074536	876.804123603674	674.75990626587	189.372308517003	1103.04767728783
294.357218529586	141.438245277959	589.651716400155	1437.41776292881	247.138720258571	2016.92671261093	670.396155282787	141.196301052989	1267.26722760458	1031.2789500047	166.85583007446	1458.38104720052	1110.81829187719	130.475874925436	2458.17457240574	1123.12341198958	155.500345852608	1687.28419303212	656.34627473039	128.938843073884	1163.72659000807	1215.30201287556	175.433308401713	1671.87568226205	901.073273724991	142	1564.75974491081	1537.61214587136	190.251052788896	2160.07415773001	1324.69474607918	139.876872874622	2323.87824183041	816.566167249003	153.52667132304	1127.35375659388	619.617989197474	129	1334.11381426076	954.509944222251	142	1829.54060994587	343.64959620802	127.517723359125	876.717164980096	674.990686096015	189.459098906892	1102.81817800821
294.370927642844	141.408730224349	589.452464267121	1437.68900883628	247.677667648092	2016.43445530481	670.481154051343	141.202164422313	1267.3694734347	1031.1639321274	166.817639097154	1458.2746265085	1111.03033574234	130.504822381572	2458.54229313841	1123.05338687018	155.542026075607	1687.70373939555	656.412643775467	128.957949325913	1164.39459225439	1215.11953622368	175.452248796543	1672.22415713558	900.788101795903	142	1565.24145628692	1537.42262860725	190.266670570228	2160.35108961716	1324.49984747229	139.875138566887	2323.62559432853	816.417460479978	153.451719739795	1126.94137102321	619.768075988437	129	1334.12225585143	954.679943031441	142	1829.43946815266	343.595100817378	127.542026075607	876.325111717724	675.149954478482	189.530538526769	1102.25395836271
294.369080004282	141.392690240552	589.093318689335	1437.67251704875	248.148121828551	2015.09983295484	670.469569996865	141.196301052989	1266.99464890318	1030.86164617458	166.749553436678	1457.50222117789	1111.03962798484	130.543630007954	2458.05950350637	1122.61181551682	155.559403582123	1687.20896510915	656.465888667338	128.971570525793	1164.89764208984	1214.63882246224	175.452787142658	1672.05765638876	900.51026653058	142	1565.70350488293	1537.31599348346	190.275185256861	2160.61016119381	1324.22961132281	139.874352818591	2323.19540386733	816.150439240203	153.367863412439	1126.34779834687	619.829308631275	129	1333.75843756536	954.718013284505	142	1828.99630401586	343.494106519599	127.542026075607	875.652686135252	675.249899289286	189.579409341988	1101.44649848452
294.356261708152	141.387324997929	588.592818524868	1437.44116813934	248.537386992641	2013.10119277845	670.39751421609	141.180943866686	1266.22273118881	1030.47805044135	166.660312069993	1456.24576794434	1110.87266459984	130.588893080341	2456.82866766486	1121.89064973749	155.549217063737	1685.91417635816	656.457378718307	128.976500394784	1165.15392538177	1213.93672235285	175.445332480036	1671.49161223926	900.218432853216	142	1566.15311946966	1537.32944210399	190.284394373215	2160.99772333123	1323.86399181561	139.876890030076	2322.5553895215	815.793770939833	153.281499058922	1125.63269572523	619.819622485757	129	1333.13282467349	954.653661637771	142	1828.39541666543	343.357125053987	127.517723359125	874.748479709937	675.306461465505	189.599416780542	1100.50524197609
294.340901047081	141.389611554466	587.996415378823	1437.10457700183	248.852558796483	2010.73352392201	670.319562457255	141.159271082241	1265.21712587527	1030.13817891696	166.559317772215	1454.77042238721	1110.59409320713	130.636091704668	2455.08008142889	1121.03875080714	155.511839359577	1684.06558688304	656.37569975257	128.971570525793	1165.14091095954	1213.1287810506	175.441568307313	1670.71060016395	899.898979395342	142	1566.59350343951	1537.48143576039	190.302310225847	2161.6084752715	1323.40226482218	139.884775398303	2321.64972500746	815.38549920363	153.200684106353	1124.83985764013	619.765959053758	129	1332.38539456406	954.521489965584	142	1827.81457199845	343.193646607195	127.471914074536	873.67825811004	675.337026628581	189.5898319217	1099.53813635189
294.329956651532	141.397504671315	587.370161735514	1436.77174317926	249.112551149357	2008.35331739139	670.290885508568	141.136611235721	1264.19462741302	1029.95161189187	166.457082282644	1453.37744713964	1110.29196221446	130.680768262596	2453.16040731968	1120.23778841657	155.451372006383	1682.03713271309	656.245727183044	128.957949325913	1164.90821035157	1212.35263305662	175.452532361625	1669.95855929675	899.55181766007	142	1567.02313497534	1537.78758827262	190.334753323415	2162.48860503822	1322.87617235544	139.898917788843	2320.4447915757	814.977340456727	153.13163707441	1124.01197119411	619.703368850791	129	1331.66733637669	954.367662589475	142	1827.41631501972	343.014028284718	127.409691783384	872.511750573687	675.358372029197	189.554317748725	1098.62915414383
294.328775848268	141.408586863629	586.784865090779	1436.53140695237	249.341237014856	2006.30286220027	670.35566899111	141.117932698753	1263.37611345448	1029.99461098565	166.363467151963	1452.34740138528	1110.06784531998	130.718153207665	2451.4835629223	1119.67196569135	155.374940245121	1680.28132657021	656.123202052841	128.938843073884	1164.56961040525	1211.74757762408	175.484201689409	1669.50582955931	899.193231432766	142	1567.44258574689	1538.27471974142	190.38373441055	2163.6635529432	1322.35182262422	139.917596325812	2318.98470475356	814.632915675303	153.077579698651	1123.21545586925	619.680458460246	129	1331.14214596399	954.266330634622	141.998672777103	1827.38220373076	342.827338283016	127.33756254096	871.32015209666	675.389043302138	189.499822358082	1097.83978050766
294.33836070711	141.421977498372	586.302837155665	1436.43765224525	249.559125042381	2004.84459154475	670.536204889816	141.106530629557	1262.94365421025	1030.29766857342	166.285192539364	1451.89382402316	1110.00938733951	130.744256310727	2450.47248109704	1119.48520963521	155.291343737799	1679.26821248917	656.073025059999	128.917596325812	1164.28308497428	1211.42109913281	175.536128868947	1669.60839350785	898.85287746737	142	1567.8612137552	1538.9901920745	190.447083943225	2165.16905982764	1321.91295093213	139.937515850987	2317.41990370498	814.414668810723	153.040179276815	1122.54970105926	619.758293418288	129	1330.98588672941	954.321891374654	141.995349747749	1827.94284752115	342.642764314959	127.262370089217	870.172029336174	675.446047915138	189.434792666016	1097.21179220996
294.356375467692	141.436547603974	585.964827390698	1436.50145870097	249.777715711998	2004.1132505217	670.830416672464	141.1045348231	1263.00221195303	1030.8448649897	166.225790551206	1452.13007438766	1110.17756639635	130.756858134722	2450.4651998184	1119.75731515786	155.209390496347	1679.39278753455	656.148038713469	128.898917788843	1164.20280720739	1211.43214570357	175.599953310026	1670.44958634735	898.565638247124	142	1568.2999772872	1540.00334418303	190.517196340204	2167.07072235244	1321.63698019697	139.954626296559	2315.98795811781	814.371466758107	153.017727277756	1122.1369435348	620.012204461188	129	1331.39457152192	954.678921791375	141.986922974495	1829.4170959684	342.470247221527	127.190261526642	869.131513084179	675.546084350448	189.367225762465	1096.77633591918
294.376267468017	141.450526906662	585.783112571393	1436.70426815031	249.997345554206	2004.09428460297	671.216426322203	141.110833148395	1263.56581522028	1031.5893096913	166.185067100016	1453.06413167772	1110.59604822973	130.75474516353	2451.65892090859	1120.49363889539	155.13740940187	1680.90731111021	656.37048885867	128.886102621199	1164.44029626798	1211.78107599622	175.661377435029	1672.09999326676	898.362770358099	142	1568.78503728222	1541.38951449934	190.583530537492	2169.46127812799	1321.56405461566	139.964470975436	2314.95628829184	814.524752637056	153.005977475148	1122.09470411518	620.524938660593	129	1332.57102620048	955.506721961864	141.970243302896	1832.19169547274	342.319251755306	127.126986822159	868.25683351881	675.701130245351	189.303093540407	1096.55690265315
294.393644974534	141.460514043167	585.744781140656	1437.01168211196	250.20900211481	2004.65778967854	671.663794763301	141.124581816373	1264.5696491215	1032.47562665587	166.159532940102	1454.62140306274	1111.25160907685	130.740950436828	2454.06966336612	1121.63406762207	155.080902728005	1683.8717255706	656.724662898645	128.881540282327	1165.03659460111	1212.41616633301	175.705056523397	1674.50233762511	898.258698068984	142	1569.34215430508	1543.20059031844	190.632947960822	2172.43682724532	1321.67899695934	139.964470975436	2314.54762406999	814.856087501527	153.001327222897	1122.50015736139	621.366990573991	129	1334.70091521384	956.959205694813	141.941549271054	1836.65634765974	342.197187353713	127.076252475754	867.597944195772	675.913310558447	189.24553445321	1096.57681941961
294.406573901718	141.463121808991	585.8190567957	1437.3965510643	250.39944292696	2005.6053706964	672.146580492647	141.142326853007	1265.89742205635	1033.45780146602	166.143654075904	1456.67416099988	1112.10107733212	130.71947013074	2457.54155118512	1123.07700156275	155.041506499712	1688.15125004913	657.160860162999	128.886102621199	1165.94948505696	1213.25298628829	175.717876498215	1677.48479956993	898.248573618205	142	1569.98766111127	1545.4415479736	190.654601793732	2176.06222002389	1321.90965533724	139.954626296559	2314.87439729343	815.30889313731	152.998672777103	1123.35747700522	622.583807619248	129	1337.90858381763	959.137128321245	141.897336574172	1843.09289054035	342.108111844228	127.040179276815	867.188596467446	676.175046660027	189.196039416324	1096.8493362525
294.417084394807	141.456022258634	585.967401498411	1437.84505515275	250.556695485068	2006.72323063401	672.651570769246	141.16051039176	1267.41457253247	1034.50994115485	166.131536743178	1459.07285615135	1113.08869414357	130.69543400972	2461.78196689069	1124.70842930305	155.017727277756	1693.44487559979	657.61136297532	128.898917788843	1167.06708552297	1214.20216537156	175.693306720789	1680.79793441904	898.30773628571	142	1570.72358057111	1548.05369171324	190.641245151487	2180.33153862925	1322.1433628115	139.937515850987	2315.905956244	815.795435290435	152.994022524852	1124.58507335691	624.179510893521	129	1342.22335245503	962.04534268153	141.83536637491	1851.57044426984	342.052063469186	127.017727277756	867.045477816687	676.46932158728	189.154076655615	1097.37627983398
294.43408610921	141.438062044108	586.158083109487	1438.36309015508	250.67550497398	2007.8498641676	673.182183402787	141.176381527814	1269.01011923082	1035.62969696096	166.118547631051	1461.68070889166	1114.15871414497	130.674682259863	2466.44094936995	1126.43260266428	155.005977475148	1699.35444449385	658.010543188617	128.917596325812	1168.24221171959	1215.1912515074	175.630293515028	1684.17393447373	898.401200840899	142	1571.53374174036	1550.91347804213	190.589570063838	2185.14322819157	1322.25729914777	139.917596325812	2317.47144120111	816.214602356903	152.982272722244	1126.02208023912	626.108647574844	129	1347.5413344085	965.57376152449	141.755530911825	1861.85855780476	342.022801770298	127.005977475148	867.156760570451	676.772545503074	189.118809488912	1098.13533429966
294.468248356158	141.409803455472	586.372183259136	1438.96600886218	250.75805577503	2008.8973598882	673.755545604719	141.188136137596	1270.6171464725	1036.82450023806	166.102409434054	1464.3882675957	1115.26393704116	130.661379334913	2471.17666921051	1128.18227335004	155	1705.45819325198	658.312280788621	128.938843073884	1169.33169777803	1216.17539885042	175.535525105933	1687.37642283515	898.487766006678	142	1572.3834816375	1553.84044344262	190.501323304266	2190.28823834223	1322.14679106566	139.898917788843	2319.30159916851	816.469306300349	152.958493500288	1127.45443770133	628.280295293718	129.001327222897	1353.62560091155	969.50220509818	141.660312069993	1873.41382199355	342.011749802608	127.002654445794	867.485222351071	677.062645454446	189.088381149336	1099.07911005138
294.529661627539	141.375390677858	586.60628855237	1439.66060092645	250.815510800819	2009.8521765265	674.390941368968	141.195235687953	1272.21780843115	1038.09459338849	166.081076451291	1467.1110651386	1116.37422503122	130.657243032414	2475.71756767137	1129.92769971805	154.995349747749	1711.37912137245	658.504633026336	128.95927654881	1170.23183046069	1217.1441726093	175.41706538826	1690.2399914996	898.535358705587	142	1573.22567757554	1556.62887166414	190.381536363696	2195.47214477801	1321.75610906763	139.886102621199	2321.0982154569	816.487822010158	152.917770049098	1128.65900368785	630.569046371669	129.004650252251	1360.12320664887	973.529657298236	141.554667519964	1885.4314267364	342.005627703908	127.004650252251	867.966696650872	677.320012510886	189.062484149013	1100.13408163492
294.624003679212	141.339573824184	586.869486062634	1440.42585783159	250.861962287148	2010.7491769586	675.097061002328	141.198833526873	1273.83348238763	1039.41441721633	166.056506673866	1469.78143967016	1117.46965706243	130.662525372418	2479.90166676591	1131.66081943814	154.988250197392	1716.83974065372	658.607773399297	128.976220778044	1170.90697299946	1218.10682324679	175.284039039754	1692.69511715766	898.525298163345	142	1574.0064325964	1559.07708025209	190.238665336314	2200.3470423574	1321.08969282107	139.881540282327	2322.59884744251	816.236325206547	152.856613122982	1129.44412612206	632.832431410071	129.011749802608	1366.61323287886	977.322975164174	141.445332480036	1896.9630215045	341.991314427797	127.011749802608	868.518081392359	677.534576734063	189.04072345119	1101.2076907988
294.750081704167	141.307504652472	587.176859722614	1441.20910952606	250.908569737886	2011.63544100815	675.863681536679	141.199906620053	1275.49957293804	1040.72784994657	166.027646425685	1472.3358068231	1118.53382423385	130.674192068822	2483.68537434101	1133.37732693869	154.974893555147	1721.68578629737	658.666889419235	128.986922974495	1171.39863050911	1219.07992100215	175.143560600305	1694.76702379684	898.459597246467	142	1574.6887575585	1561.02660620026	190.081076451291	2204.5932923433	1320.21615966519	139.886102621199	2323.6657548484	815.725288971918	152.774209448794	1129.70015165347	634.934808329045	129.023779221956	1372.68344295127	980.575540967847	141.339687930007	1907.09201876596	341.959022557036	127.023779221956	869.054925123563	677.705336140137	189.023779221956	1102.20978485652
294.897157288664	141.283607292514	587.538883112121	1441.92483727726	250.960405479652	2012.53671126098	676.654237285338	141.198833526873	1277.24056868389	1041.94789179077	165.995349747749	1474.7059971198	1119.54673373509	130.689710664289	2487.107609181	1135.05651582319	154.954626296559	1725.87179281213	658.733920903928	128.990699495499	1171.80429304247	1220.06665638964	175.001327222897	1696.54662914385	898.359434910871	142	1575.2567976079	1562.39028577767	189.918923548709	2207.9655333505	1319.24893897882	139.898917788843	2324.30369689288	815.005384528546	152.673127237637	1129.41592376924	636.768516112088	129.04072345119	1377.99730336511	983.062846106868	141.244469088175	1915.0919921663	341.904270821128	127.04072345119	869.505307592506	677.841618727462	189.011749802608	1103.06884077007
295.048608957359	141.269824613896	587.956643206814	1442.47337179613	251.014477962407	2013.43527483015	677.412562193277	141.195235687953	1279.04696524644	1042.97405745042	165.95927654881	1476.81483525504	1120.4830063663	130.704358550537	2490.25459664021	1136.65242146771	154.927093271276	1729.43167709645	658.852938985619	128.986922974495	1172.25295834843	1221.05258250551	174.861089651946	1698.15867911688	898.264590853748	142	1575.73314185333	1563.17055741457	189.761334663686	2210.35966481111	1318.3255809818	139.917596325812	2324.6741293228	814.158448347323	152.559229858837	1128.6857687681	638.271230408642	129.061156926116	1382.3574461891	984.675065904649	141.16463362509	1920.56468117694	341.82931443071	127.062484149013	869.829421043828	677.962258048167	189.004650252251	1103.75369558699
295.185778142046	141.267450143981	588.41724388451	1442.76965499281	251.059575711445	2014.27821035402	678.07702549939	141.188136137596	1280.87229795467	1043.72104709165	165.919714104178	1478.59290212143	1121.30570913825	130.715177911724	2493.20056097383	1138.09315323658	154.892489880959	1732.43074451654	659.04155858672	128.976220778044	1172.86113212239	1221.99720811441	174.727710762854	1699.71528470709	898.218747731824	142	1576.16841766224	1563.44589483905	189.618463636304	2211.81575044479	1317.56667008163	139.938843073884	2325.03191792113	813.27577881847	152.440770141163	1127.67935699575	639.431838926186	129.082403674188	1385.73841476992	985.430595566469	141.102663425828	1923.49608271986	341.742280163034	127.087053926439	870.029231014954	678.091553173079	189.001327222897	1104.28451185364
295.292003565842	141.275207974537	588.894122138045	1442.77266824864	251.080538639027	2014.98885581996	678.596667324574	141.176381527814	1282.63905465462	1044.14586222268	165.878200097519	1479.99170540104	1121.98125611883	130.718667157416	2495.9745874016	1139.30251842184	154.852216862506	1734.93428018808	659.290957000738	128.95927654881	1173.69993367141	1222.8500264325	174.606713833696	1701.28736830227	898.263620608789	142	1576.640733783	1563.35648378161	189.500003918631	2212.51801950356	1317.05803728855	139.95927654881	2325.6694204789	812.443335732718	152.326872762363	1126.6064120641	640.285609172951	129.101082211157	1388.27237833399	985.45663944395	141.058450728946	1924.22481178982	341.654611304296	127.112832013765	870.146882336248	678.255972105707	189	1104.72969701391
295.357750286108	141.290797525597	589.3563439945	1442.49694133944	251.063869336824	2015.50849944883	678.945904103045	141.159183168863	1284.26585885563	1044.26030211713	165.83643363983	1481.00828711218	1122.48066965313	130.713575879261	2498.55978376329	1140.21580640358	154.807218417328	1736.99227536617	659.565386619492	128.938843073884	1174.77897292851	1223.56264017281	174.505198345257	1702.8995243212	898.424906053113	142	1577.23241052781	1563.0623217888	189.413752965515	2212.73930068346	1316.82666227225	139.976220778044	2326.82545996488	811.724048253185	152.225790551206	1125.66647692597	640.898397839703	129.1138973788	1390.2098508579	984.948184570699	141.029756697104	1923.34321365416	341.576852320137	127.137676600757	870.255082567428	678.477177600365	189	1105.19253345993
295.381171474829	141.312585678697	589.777376397571	1442.01953948856	251.002533263142	2015.82737690712	679.13369171797	141.137676600757	1285.69544109811	1044.13691646455	165.799048694761	1481.70259429972	1122.79536510321	130.7012896509	2500.91522889546	1140.81158114386	154.758957331324	1738.6468933526	659.816238194463	128.917596325812	1176.04733083695	1224.11158581323	174.430863411088	1704.54076003652	898.708626059351	142	1578.00972940787	1562.71079540028	189.36585439887	2212.77344349864	1316.84426014666	139.988250197392	2328.61708238937	811.15159980959	152.144714099915	1125.00474203238	641.345561855022	129.118459717673	1391.84502684628	984.117977523611	141.013077025505	1921.53700305258	341.517134289005	127.159183168863	870.434030983236	678.767582752212	189	1105.78111629763
295.370834167245	141.336776792665	590.14520407279	1441.46340885155	250.89917013614	2016.00585575243	679.202620462114	141.112832013765	1286.92096200386	1043.89507736555	165.768708268562	1482.19955370702	1122.94574235208	130.682356984215	2503.00727490528	1141.12454446352	154.707440711392	1739.94865207672	660.000417315067	128.898917788843	1177.41297331239	1224.51263224242	174.390424176296	1706.18674172996	899.097161711745	141.998672777103	1579.01705845832	1562.4063476405	189.356100402719	2212.88883049367	1317.03873382325	139.994022524852	2331.03371642404	810.728177205726	152.086880203152	1124.69870153306	641.692637968364	129.1138973788	1393.44361179888	983.149942084136	141.004650252251	1919.43913572171	341.476410837815	127.175054304917	870.751180028178	679.125049849294	189	1106.58193342346
295.33942363841	141.362933543449	590.467028837058	1440.96356393278	250.767392386521	2016.16669466173	679.213392023806	141.087053926439	1287.99223725583	1043.66771312125	165.748426020443	1482.67218098063	1122.97379187295	130.661110236143	2504.86247405498	1141.24011022364	154.65471055853	1740.99584177479	660.090060132459	128.886102621199	1178.7796238973	1224.81469723457	174.387855965193	1707.83676270272	899.557505199608	141.995349747749	1580.26330606676	1562.20854617164	189.379346016161	2213.2753073454	1317.32107085806	139.992695301956	2333.93527156005	810.436434783028	152.05325630232	1124.75012727605	641.986618788987	129.101082211157	1395.18705363673	982.177667588701	141.001327222897	1917.52277762225	341.452519943772	127.184813108242	871.238946774467	679.535983641971	189	1107.63363407005
295.302216750247	141.38907789806	590.768096860658	1440.64349947225	250.628913889439	2016.47102784853	679.234554540805	141.062484149013	1289.00829621203	1043.57907953015	165.73973461998	1483.31314389887	1122.94273850211	130.640930890933	2506.56986138776	1141.28030025381	154.603102754036	1741.93438327772	660.083867634583	128.881540282327	1180.07317673597	1225.09163301101	174.421917880908	1709.51675162968	900.04006847419	141.988250197392	1581.71910480815	1562.12389438228	189.425153134827	2214.02588735336	1317.6009005721	139.983599945141	2337.09798867013	810.246280019301	152.042833722609	1125.10608728592	642.254038464864	129.082403674188	1397.14581310853	981.284017657481	141	1916.06097561553	341.439448480488	127.188136137596	871.887436769321	679.975976900258	188.998672777103	1108.91507202572
295.274020637591	141.415262173694	591.084940096415	1440.58480636052	250.508351362453	2017.07715255597	679.322212279883	141.042050674087	1290.09258061812	1043.71291056513	165.742542020895	1484.29569602598	1122.91864275389	130.624784945314	2508.28500390243	1141.37338082185	154.556523661666	1742.95745968996	660.006583700722	128.884775398303	1181.27021036311	1225.41847109815	174.486838979748	1711.28604525637	900.494543507111	141.976220778044	1583.32310944876	1562.12638864043	189.480271185912	2215.1405045315	1317.81081181265	139.964470975436	2340.27697273419	810.12632468935	152.051351178588	1125.68552139406	642.503430496824	129.061156926116	1399.27677668394	980.505615998953	141	1915.12742945204	341.429811649073	127.186804107525	872.644442716359	680.415148601722	188.995349747749	1110.34627640369
295.265280255099	141.441177226001	591.451563665484	1440.81451514587	250.427158451848	2018.09570943954	679.508252345433	141.028429474207	1291.35391529257	1044.09760398261	165.754029965642	1485.73058241468	1122.956660387	130.615280271705	2510.18440488527	1141.61951871173	154.518760399421	1744.26410051683	659.900840137603	128.894267536593	1182.39848448185	1225.84784435637	174.571067574823	1713.21300941953	900.872711347578	141.95927654881	1584.99965141701	1562.1709895247	189.530871142553	2216.55829415652	1317.91596349588	139.935497326854	2343.27459332018	810.053627666346	152.074233951621	1126.41200696567	642.737862195336	129.04072345119	1401.46764154752	979.859224716495	141	1914.67741449722	341.41830098665	127.182962390819	873.431376763586	680.828695550068	188.988250197392	1111.81727442199
295.27824664955	141.469116439593	591.890771277473	1441.30420912478	250.397327285691	2019.55531763293	679.795113473631	141.024826828113	1292.85763767361	1044.70564080402	165.771140411214	1487.64478543867	1123.08835914245	130.613030335531	2512.41931014469	1142.06449337012	154.493243394961	1746.01189320188	659.814213388443	128.905846523203	1183.52128700552	1226.39434962082	174.660312069993	1715.34661167984	901.14029102894	141.938843073884	1586.67518804696	1562.21523038851	189.56659660808	2218.19825488608	1317.91747465061	139.898119622694	2345.99343682375	810.017006187771	152.106182896144	1127.24131371883	642.966351774223	129.023779221956	1403.5874088901	979.365040407424	141	1914.62914474659	341.403491691237	127.178400051946	874.163383442004	681.203174038004	188.976220778044	1113.21814301161
295.310714281425	141.498062632898	592.401522950247	1441.98566238773	250.418403217766	2021.39076093536	680.159364729412	141.033079726457	1294.60135799429	1045.46801910472	165.788089447622	1489.97203888218	1123.31927575123	130.617960204522	2515.05918622796	1142.69254025078	154.480707844057	1748.26042335731	659.784733470363	128.915063851928	1184.7057580016	1227.03256135925	174.739130856967	1717.68516073788	901.28359008263	141.917596325812	1588.28876920406	1562.23181749918	189.581427866121	2219.98599166488	1317.84645261928	139.856439399695	2348.44681919678	810.017603313299	152.141805662347	1128.16923684579	643.206985349107	129.011749802608	1405.54511112244	979.053448990409	141	1914.94543795302	341.388558745227	127.173988939881	874.773588380529	681.542142657699	188.957949325913	1114.48020594861
295.356375467692	141.527036211907	592.964895832833	1442.77479893935	250.478953611522	2023.4665655979	680.563378064916	141.055127699592	1296.52157052091	1046.29716365727	165.799310331425	1492.57990049323	1123.63221895991	130.628901471585	2518.06482147659	1143.43406241653	154.478598278061	1750.94532944196	659.82995107418	128.91855309762	1185.98623168304	1227.70563621858	174.793859875198	1720.15991494004	901.310312566437	141.898917788843	1589.81027949306	1562.2198951713	189.574317946368	2221.88638908855	1317.75557820807	139.815186891758	2350.7544887632	810.067712605346	152.175054304917	1129.23217667669	643.494359362515	129.004650252251	1407.33472609921	978.976894645741	141	1915.68999864869	341.380411381197	127.169457600627	875.233585784802	681.868508455814	188.934192821633	1115.60224085712
295.406568339496	141.55379385829	593.541863255567	1443.59209326657	250.559229858837	2025.59382510069	680.966170213674	141.089586400323	1298.50321767903	1047.11285101675	165.800549640944	1495.29659033386	1123.99601190046	130.64521842024	2521.2894836517	1144.19045183603	154.481382961299	1753.88338997328	659.941003532426	128.913736629031	1187.34203563468	1228.3445094851	174.81510662327	1722.63911373642	901.249238971261	141.886102621199	1591.23228640029	1562.20315797677	189.547386580629	2223.89307497837	1317.70034429308	139.780370157792	2353.07830424401	810.183377174976	152.200863391861	1130.48122277363	643.874629720414	129.001327222897	1409.04483038999	979.199813191297	141	1917.0192553653	341.387506193953	127.16356636017	875.556706654353	682.220160764629	188.905846523204	1116.65024897063
295.45480190065	141.575914268036	594.09027017291	1444.37831972568	250.637598213073	2027.59268991555	681.338363292449	141.134876927986	1300.42159405569	1047.86286038235	165.789154812658	1497.96311082551	1124.37918211912	130.666827891256	2524.51379495073	1144.86795296314	154.48176079124	1756.81322889766	660.086270877917	128.901196270953	1188.69115021912	1228.89013220109	174.798162394037	1724.95461930583	901.141332828539	141.881540282327	1592.55918142224	1562.22148306296	189.506773760493	2226.00760035728	1317.72516145549	139.755893100918	2355.54706565467	810.378881069241	152.214979589957	1131.94872109519	644.392708527434	129	1410.82711922935	979.77850462728	141	1919.12104063847	341.415940405761	127.15462082999	875.791388663255	682.636874822783	188.875138566887	1117.73346899197
295.49807293272	141.589635480737	594.574042801171	1445.10372433176	250.694633943686	2029.32318701021	681.666966528639	141.186018359229	1302.16934454079	1048.53187203511	165.766039726227	1500.46135761719	1124.75467986941	130.692865798616	2527.50334621177	1145.40243974519	154.471377766248	1759.46400808633	660.220618772664	128.881190511088	1189.9141202895	1229.30962224681	174.74445275169	1726.94610075289	901.026373075246	141.8861026212	1593.79580078273	1562.30531037472	189.458121455235	2228.21030199776	1317.84393664805	139.742536458673	2358.1992777758	810.654429181072	152.21365236706	1133.61863166389	645.078111180236	129	1412.84611964299	980.736956018068	141	1922.12461786737	341.468134250335	127.142238939629	876.007861006994	683.148462480187	188.84537917001	1118.96504293092
295.535968352772	141.594618997449	594.969630029318	1445.76259050527	250.719203721112	2030.71012723037	681.955063606021	141.237024504179	1303.67625602662	1049.13404432815	165.733226039627	1502.72187983292	1125.10846267076	130.722274403168	2530.06092397699	1145.78090230371	154.445058204321	1761.61714975583	660.300542800442	128.855018701199	1190.88329616071	1229.60997884281	174.660050212132	1728.49932448511	900.936555299377	141.898917788843	1594.93891232878	1562.47035004592	189.407413301275	2230.43872092207	1318.04656018156	139.739646706602	2360.95946295391	810.996530733215	152.196213139611	1135.41547597102	645.930530262339	129	1415.205040116	982.04158887296	141	1925.99875514693	341.540901093107	127.125647181409	876.268576351542	683.760730535363	188.820383356211	1120.41012195754
295.569652438548	141.59126503805	595.270039531577	1446.36087285748	250.709706775648	2031.74469431771	682.215214575185	141.280698854946	1304.91789532918	1049.69758080274	165.697168317454	1504.71769208109	1125.43750367036	130.752347768423	2532.07254998808	1146.03683253752	154.401900931791	1763.15459623155	660.29789391687	128.824416776278	1191.50416909831	1229.83342902689	174.555906829483	1729.57893798068	900.885847840167	141.917596325812	1595.96377499032	1562.69673056951	189.358799744258	2232.56551903368	1318.29700057031	139.743607385931	2363.6432105587	811.374014225596	152.163304502309	1137.20216324831	646.913744733232	129	1417.89535239513	983.593054257218	141	1930.49934242113	341.6263642601	127.105732463407	876.61186865415	684.452539217257	188.802371724114	1122.0552390845
295.601708247985	141.582034328909	595.481876267118	1446.91020189298	250.673127237637	2032.47160107721	682.460489336457	141.310198431789	1305.90426079941	1050.24626271366	165.661198149521	1506.44175181717	1125.74383366443	130.778876856499	2533.51585407874	1146.23581109844	154.34541141338	1764.07440293616	660.205566939795	128.789416670519	1191.74010180955	1230.04462973699	174.444093170517	1730.23077974287	900.87076426904	141.938843073884	1596.83271420813	1562.93313289126	189.314153770093	2234.41928610816	1318.54890366028	139.750256503551	2366.02108953512	811.744648437605	152.11802644039	1138.8120191991	647.959461914955	129	1420.78074521797	985.235587069372	141	1935.1757502615	341.715177911724	127.083730897085	877.038518648875	685.178052584572	188.791858102539	1123.79883765544
295.631982927018	141.57062162821	595.615349069419	1447.4143344707	250.622405309086	2032.94350260758	682.693812147824	141.320624139986	1306.6532321009	1050.78020558383	165.629616531531	1507.86892233744	1126.02297679134	130.798100342837	2534.43742628482	1146.44083011552	154.284822088276	1764.46289491877	660.036003629722	128.752011441509	1191.61977437249	1230.29930531758	174.338622564971	1730.55895924687	900.876605813678	141.95927654881	1597.49909667422	1563.1085098495	189.274399508565	2235.79906870484	1318.7628974806	139.756313960347	2367.87766073657	812.063716078456	152.065459444955	1140.07841211454	648.97785225831	129	1423.61765048518	986.780435553452	141	1939.43827326269	341.79798867075	127.061156926116	877.514114179349	685.875248421121	188.785971669255	1125.46890125768
295.659002002551	141.559247014291	595.678965816997	1447.86848687907	250.573529290783	2033.1981947305	682.903252277517	141.310198431789	1307.16903036187	1051.2684970479	165.603459711174	1508.93674451991	1126.25783147894	130.804658418594	2534.91502037652	1146.68517640756	154.231562878667	1764.44613208829	659.814809076982	128.714633737349	1191.22499485615	1230.62472806091	174.249569773162	1730.6851571426	900.881658167952	141.976220778044	1597.91860863438	1563.14520863877	189.239041299998	2236.51253436119	1318.9135018025	139.760443021937	2369.07022318922	812.288815670229	152.011749802608	1140.86824577695	649.877069989969	129	1426.11321212673	988.040188788308	141	1942.67665583959	341.86836292559	127.04072345119	877.97933484931	686.482561890797	188.780204079396	1126.86324529361
295.67986875476	141.548252029933	595.673958404024	1448.25954313503	250.540913510961	2033.24283511579	683.064796027268	141.280698854946	1307.43232583749	1051.653141662	165.581248580613	1509.5472438195	1126.41121967496	130.796661447853	2535.01123414741	1146.95016092054	154.194812524659	1764.13481151262	659.56395958468	128.681385094779	1190.66289172587	1230.9989721183	174.184110328208	1730.70309226872	900.868813309535	141.988250197392	1598.05816474756	1562.97931227036	189.207612840713	2236.40701052021	1318.9898819645	139.763607583574	2369.54932308684	812.386831751096	151.962970029252	1141.10163664997	650.579847463777	129	1427.99285623102	988.862638875667	141	1944.38192450962	341.922420301349	127.023779221956	878.364110455067	686.946852303345	188.767799471359	1127.79620868075
295.688744243974	141.537228292514	595.596228233613	1448.5688821342	250.534861566761	2033.0563259896	683.144422476374	141.237024504179	1307.40383772264	1051.86201518292	165.560557081734	1509.59099944626	1126.43642649499	130.772904943573	2534.74168721745	1147.17098127212	154.179460075957	1763.58302317836	659.296320865823	128.657330945792	1190.02984820678	1231.35641882322	174.143386877018	1730.64943372593	900.829307575078	141.995349747749	1597.90958691061	1562.5790133693	189.179727274843	2235.41119134152	1318.99881026882	139.768620355184	2369.3648938912	812.339365241204	151.924024233696	1140.76350075911	651.037400241902	129	1429.06834886284	989.160180475019	140.998672777103	1944.26172387002	341.959820723185	127.011749802608	878.608393313461	687.2359016114	188.743501492477	1128.14293076292
295.680055971997	141.521829437	595.440579825098	1448.77979556552	250.562488067644	2032.61203452994	683.112116509071	141.186018359229	1307.03860401774	1051.83206870585	165.535971827541	1508.97919336017	1126.28656439604	130.734284163753	2534.0697242001	1147.25262979326	154.18373987712	1762.77439338073	659.009296753524	128.647343809286	1189.38630345483	1231.60407994373	174.1239101739	1730.4940342556	900.76605177431	141.998672777103	1597.49296895473	1561.95263251684	189.153988742237	2233.55181183108	1318.95195689635	139.779042934895	2368.63400174486	812.143866406491	151.897852423808	1139.89990744621	651.236671260438	129	1429.27543258084	988.920893248453	140.995349747749	1942.29397207461	341.982272722244	127.004650252251	878.67161154413	687.340764140279	188.703835193953	1127.86526392742
295.649000282269	141.501486934365	595.208166841337	1448.88974537944	250.629114081378	2031.91015735985	682.95161335822	141.136204150883	1306.31509856829	1051.53424909488	165.506049273238	1507.69291987827	1125.92957438133	130.683661489436	2532.92379062397	1147.10314353251	154.201213163101	1761.64154287654	658.686798140436	128.654810889762	1188.74262949308	1231.64850214804	174.118809488912	1730.15845293945	900.693049170409	142	1596.84861902851	1561.152861202	189.130297433659	2230.94765282935	1318.86231061128	139.797809385242	2367.48534845296	811.81615338574	151.886190534578	1138.59788668868	651.19727040898	128.998672777103	1428.6815747309	988.205922730564	140.988250197392	1938.72264451155	341.992695301956	127.001327222897	878.539872594183	687.274790094258	188.64804351046	1127.0157072219
295.59448217395	141.475356376026	594.915929137172	1448.91165919464	250.738164766965	2031.00814342852	682.669318402803	141.095563875471	1305.26120460541	1050.98766295005	165.470794037153	1505.81376154715	1125.36775277388	130.625583249405	2531.23644699582	1146.67391642259	154.220957065105	1760.10840377375	658.312440484959	128.680588977087	1188.06689055498	1231.43425462808	174.121202076845	1729.54979404413	900.626655332131	142	1596.0403474649	1560.26135001854	189.107059686304	2227.80860513537	1318.73455989157	139.823618472186	2366.0309097105	811.383109741105	151.887429844096	1136.97212197663	650.965474597493	128.995349747749	1427.45801310609	987.131548266427	140.976220778044	1933.99384705854	341.992695301956	127	878.223657771915	687.065409108475	188.578336110866	1125.71718590964
295.5191384954	141.447445451229	594.599008243598	1448.87249503497	250.892147946981	2030.03604385714	682.292998172954	141.070200531554	1303.96982413413	1050.26096665608	165.434630283585	1503.53606193398	1124.6396211888	130.565631574276	2528.98265783475	1145.97992472593	154.23368431937	1758.13657487379	657.880507412424	128.72253626103	1187.30654116025	1230.96087022528	174.124437192821	1728.6018432452	900.585403183332	142	1595.13501578268	1559.38054207441	189.083730897085	2224.38824183325	1318.56949707044	139.853544085403	2364.32064092657	810.883530906454	151.898917788843	1135.13614524109	650.599894445513	128.988250197392	1425.83090419089	985.841072070188	140.95927654881	1928.65211130045	341.983599945141	127.001327222897	877.751618178791	686.748896608586	188.500721816293	1124.13226991862
295.428932425177	141.424173645342	594.307507752133	1448.80928342848	251.093569968898	2029.18255582638	681.869173509593	141.065285721668	1302.59435878714	1049.46203677983	165.405495108374	1501.14233204492	1123.81938504899	130.510620901478	2526.22201829204	1145.10731492219	154.232357096474	1755.77155440575	657.40812420185	128.775790663465	1186.42373505317	1230.2921880438	174.126974404306	1727.31162494748	900.57897974701	142	1594.19468314124	1558.60724254593	189.061156926116	2220.94784555145	1318.36209256325	139.88074007835	2362.33929343428	810.357710620513	151.917596325812	1133.1890242593	650.160968265411	128.976220778044	1424.02682050725	984.475156701019	140.938843073884	1923.22692016341	341.963143752539	127.004650252251	877.161089177221	686.359553362731	188.422182646059	1122.42296677509
295.333710454859	141.412622183581	594.098849367402	1448.75824647603	251.3400501191	2028.66299724078	681.453065366715	141.082229950902	1301.32838564605	1048.71351733262	165.392702658406	1498.95900019116	1123.00873266096	130.466657596711	2523.11295844173	1144.20442748837	154.216306812854	1753.15789863548	656.942323708612	128.832660177739	1185.42098699123	1229.55180694615	174.13083890826	1725.75679431802	900.610990022147	142	1593.26253539352	1558.0214650682	189.04072345119	2217.71575543072	1318.11222452899	139.898663797069	2360.02606391326	809.844072853544	151.938843073884	1131.20601129726	649.700745338582	128.95927654881	1422.22207569161	983.149156337937	140.917596325812	1918.13802918367	341.930847074603	127.011749802608	876.48870490746	685.926958881512	188.351437732615	1120.71965791902
295.243141865278	141.418908460793	594.021254735131	1448.74751111351	251.623459770875	2028.66518302146	681.09487188878	141.118280432165	1300.36197917995	1048.12683969574	165.403125238117	1497.28623620008	1122.32089280159	130.436736721096	2519.91517720975	1143.45174516875	154.188136137596	1750.53729090993	656.556592668207	128.885042597189	1184.36131933786	1228.8990015867	174.139527180237	1724.09986263931	900.678503979859	142	1592.3682718686	1557.67674252409	189.023779221956	2214.87242492517	1317.83748157274	139.902153042761	2357.32769066984	809.381172374429	151.95927654881	1129.25044032045	649.260034077096	128.938843073884	1420.53008444128	981.944179919907	140.898917788843	1913.66583331395	341.886369820086	127.023779221956	875.769188607512	685.476403982183	188.296048396358	1119.11251019696
295.165960847987	141.446218559564	594.103657943838	1448.78845220419	251.929982702297	2029.29784909252	680.831269244923	141.169994268055	1299.84451143373	1047.77849818541	165.441024132938	1496.34266609766	1121.85527393927	130.422760546894	2516.96045411216	1143.01640743713	154.155310402913	1748.21293802837	656.335716948588	128.926196822353	1183.36212805565	1228.48874758225	174.157842876797	1722.56227292031	900.774599681424	142	1591.52133018098	1557.59533251523	189.013077025505	2212.53201751242	1317.57264661021	139.889957407075	2354.23813102379	809.003603545693	151.976220778044	1127.38099775464	648.867409253443	128.917596325812	1419.00530688039	980.907756619462	140.8861026212	1909.95323769806	341.831332954842	127.04072345119	875.03435533592	685.028355005154	188.261957225745	1117.6518486346
295.107313678079	141.492033406374	594.341357772774	1448.87744136236	252.236648540494	2030.55117231695	680.677545397706	141.228859588786	1299.84131676189	1047.69830462035	165.503783208982	1496.21317783891	1121.68125252943	130.423418827092	2514.60230592129	1143.01675093084	154.125659599262	1746.49602830188	656.354661687669	128.951393949931	1182.5762850808	1228.4418093415	174.188957021421	1721.38872232058	900.899320625161	142	1590.72314602655	1557.77698028684	189.009300504501	2210.75426054478	1317.37883852823	139.865123072014	2350.84323375155	808.747269541682	151.988250197392	1125.66815486489	648.542684548177	128.898917788843	1417.66398067298	980.060892260676	140.881540282327	1907.03962970536	341.771140411214	127.061156926116	874.31532935511	684.604538741731	188.250446563322	1116.36288869862
295.070200531554	141.550800316235	594.698966135103	1448.99833154407	252.517334977587	2032.28695480507	680.627345936308	141.287886318682	1300.31812254599	1047.86659430468	165.584424217068	1496.83418062472	1121.82010168511	130.435257633737	2513.14667132083	1143.48859447402	154.106553347233	1745.63977840534	656.658193312532	128.959820723185	1182.15171653741	1228.81028397904	174.232719285566	1720.79356127952	901.062609358526	142	1589.98824693975	1558.20835172015	189.014404248402	2209.57324193623	1317.33413943973	139.833110610476	2347.35280852181	808.647125254531	151.995349747749	1124.20666593227	648.299908000478	128.886102621199	1416.52221432636	979.410355074198	140.8861026212	1904.91706875765	341.713440904215	127.082403674188	873.654084711401	684.229188711999	188.261418830004	1115.26726598068
295.05353591906	141.615555198736	595.113633842251	1449.12847296996	252.743999728249	2034.26397041495	680.654080574246	141.338539992618	1301.14548364288	1048.22374641228	165.673389095498	1498.00997725506	1122.24086929748	130.454912531704	2512.78629670498	1144.37908950993	154.101336202931	1745.78347777387	657.245580811669	128.953299073663	1182.195253988	1229.57056658738	174.286935059469	1720.91449519491	901.285701081567	142	1589.34788895459	1558.86594975125	189.028429474207	2209.00544309586	1317.51623032641	139.801044501217	2344.0731046575	808.728912141701	151.998672777103	1123.10400833738	648.148811444047	128.881540282327	1415.61350707771	978.951416832959	140.898917788843	1903.55576193165	341.666110259633	127.101082211157	873.098371909946	683.926510000591	188.290799563424	1114.39275945671
295.053800476695	141.679104712785	595.510163154699	1449.24506597476	252.891671459694	2036.18929774897	680.721046793644	141.37416275882	1302.12884223851	1048.68611467646	165.760181164076	1499.45880931264	1122.86988953042	130.480063338451	2513.55040876774	1145.56109937927	154.110553531655	1746.91436645525	658.067239128617	128.937515850987	1182.73804661696	1230.6320953772	174.348102354981	1721.77873876426	901.5967080866	142	1588.85350112405	1559.72432901918	189.052473253798	2209.06347429232	1317.98557631352	139.77580781892	2341.36277578124	809.006013040262	152	1122.46731261076	648.097871046262	128.886102621199	1414.99730441734	978.675380194491	140.917596325812	1902.9250176714	341.638914266685	127.115224601697	872.703580360127	683.72273909778	188.334609962695	1113.77936008182
295.065807178367	141.73561138665	595.818647382226	1449.32914105553	252.94256818853	2037.78419266896	680.78688229675	141.391361117771	1303.05508773873	1049.16407837234	165.836693597807	1500.87932576638	1123.60269153329	130.509910648707	2515.29549289763	1146.86093687457	154.132166131157	1748.86895395596	659.030801244348	128.917596325812	1183.72111457785	1231.85789559905	174.412434142556	1723.29874265015	902.021963007814	142	1588.56961516582	1560.75005264164	189.084936148072	2209.75520405182	1318.76423355338	139.760455439791	2339.56883091945	809.470932567631	152	1122.38133070415	648.151416906005	128.898917788843	1414.75844135203	978.570891360542	140.938843073884	1902.99916300423	341.63972280223	127.124437192821	872.528173638303	683.640212496629	188.387773392839	1113.48025293344
295.083730897085	141.782111972475	595.987783911509	1449.37114799109	252.88367611263	2038.84592587188	680.817759169179	141.388999529457	1303.74077987582	1049.58157263469	165.896009351275	1502.0131728188	1124.32790743808	130.542633363015	2517.73450451468	1148.09762195388	154.161925528035	1751.36517494489	660.01750553729	128.898917788843	1185.00187416045	1233.10002945591	174.476826184648	1725.29206886791	902.573454960896	142	1588.55589039711	1561.9019900245	189.124454348275	2211.07070739497	1319.83050013903	139.756678849214	2338.95764993122	810.094281791288	152	1122.88844181799	648.30800567132	128.917596325812	1414.98109523176	978.619020741954	140.95927654881	1903.73855499901	341.674101451739	127.130297433659	872.617710094033	683.693705126312	188.446118228332	1113.54564462703
295.102409434054	141.817112078234	595.997814952722	1449.3763759956	252.70956269753	2039.28430477644	680.795488355513	141.37028999287	1304.07170707371	1049.89553713908	165.935571795907	1502.69870020747	1124.94516153108	130.576624520807	2520.49629569296	1149.11739209771	154.196016698648	1754.05614862958	660.902641417707	128.886102621199	1186.37948788451	1234.2263374702	174.540551321868	1727.51999464999	903.242819135213	142	1588.84216070002	1563.1258116123	189.166889389524	2212.95659786768	1321.11640208357	139.762975495821	2339.6511552573	810.828473151235	152	1123.97072883656	648.560058579924	128.938843073884	1415.73406341682	978.798750533464	140.976220778044	1905.08895707265	341.744123235566	127.136611235721	872.999560491749	683.889643338893	188.505779153381	1114.01763223693
295.119874853948	141.83861864634	595.864695870003	1449.36521285556	252.420924892669	2039.15225849474	680.720601701932	141.340639189219	1304.03291085748	1050.10144471593	165.953843248038	1502.9068193186	1125.38171592768	130.610388445534	2523.21234430578	1149.8185212488	154.231830077553	1756.60610738201	661.576101250328	128.881540282327	1187.63765578164	1235.14461115501	174.603009278436	1729.74163215642	903.995453019899	142	1589.42536147567	1564.35255781877	189.209378078494	2215.31991831113	1322.51438611523	139.776603936611	2341.6165276536	811.610666847333	152	1125.55324763889	648.890597080613	128.95927654881	1417.04979988114	979.079987379317	140.988250197392	1906.96447964529	341.847773657827	127.146906347334	873.672986869673	684.222345053301	188.564426323289	1114.91416379022
295.136186995429	141.844334263626	595.639261762884	1449.37056980108	252.023616647154	2038.62875094933	680.61467775636	141.306089516197	1303.70921458545	1050.23514559906	165.951393949931	1502.73930079868	1125.60268529144	130.641200255742	2525.58463796907	1150.16434153834	154.267994318356	1758.74539395766	661.962273720108	128.886102621199	1188.59212552819	1235.81265929569	174.664979477698	1731.75403985183	904.781705025579	142	1590.26857240095	1565.50681290164	189.249298625933	2218.02319829235	1323.90036521064	139.794469200433	2344.67311963959	812.375013465605	152	1127.50975187672	649.275812003589	128.976220778044	1418.9066906056	979.42671302275	140.995349747749	1909.24062744587	341.979103023167	127.163037303422	874.605356225164	684.673774239481	188.619059562056	1116.21755298054
295.155403878512	141.832043345556	595.393573482363	1449.43589107413	251.535065868054	2037.9863571691	680.514410670342	141.271740255597	1303.26189151221	1050.36240323404	165.930847074603	1502.39717552503	1125.61239145213	130.666717260202	2527.44185571831	1150.17885268882	154.304158905443	1760.3125518441	662.033650317324	128.898917788843	1189.13202991072	1236.23406546407	174.726569681097	1733.42239988351	905.542968579303	142	1591.3088977569	1566.51474084987	189.286245486547	2220.89507735446	1325.15154645902	139.813981640771	2348.52320218245	813.05942676673	152	1129.67606606121	649.685692569365	128.988250197392	1421.22881158482	979.796668441427	140.998672777103	1911.75516521336	342.129104600526	127.184284051494	875.73473715837	685.215971734509	188.669275151536	1117.86831189154
295.183312162058	141.800106449116	595.207884180314	1449.6110833013	250.986043483661	2037.53673407149	680.465637904241	141.240609391394	1302.89260140091	1050.56321739656	165.896792399797	1502.13108704773	1125.45173745793	130.686204263142	2528.75071174529	1149.93316519219	154.339577298953	1761.26502170322	661.81727582626	128.917596325812	1189.24744700323	1236.44949650787	174.786757417551	1734.685753799	906.227348213735	142.001327222897	1592.47855525189	1567.31425411371	189.322205354658	2223.75552705383	1326.16368261068	139.833629367401	2352.80980838238	813.612717656986	152	1131.87491343493	650.087572238635	128.995349747749	1423.87834516348	980.142528697448	141	1914.3022400891	342.285799539934	127.207265107301	876.971834886963	685.810829496988	188.711737717634	1119.76011918247
295.227117774103	141.75121327536	595.154046269981	1449.93660644504	250.421144283527	2037.5708903964	680.509147066042	141.214569805346	1302.79403768853	1050.90691100988	165.856439399695	1502.1779214956	1125.18375238763	130.698474550989	2529.58398505268	1149.52027922953	154.3736357399	1761.65057058326	661.387885946847	128.938843073884	1189.02210759372	1236.51468062536	174.842035151293	1735.54066271041	906.794738322273	142.004650252251	1593.70817849343	1567.85985599958	189.359607455182	2226.42392957475	1326.86167616206	139.851783585223	2357.15499971777	813.997160492332	152	1133.92745884787	650.447798222419	128.998672777103	1426.67184786657	980.41405795674	140.998672777103	1916.65421066377	342.436529673524	127.226729392565	878.214611601429	686.412895678545	188.74392573277	1121.7470330774
295.291597729573	141.689527292496	595.279793782621	1450.43843670465	249.89620988416	2038.29555887204	680.67333948212	141.192781582672	1303.1023294594	1051.43448460927	165.816514114655	1502.69921114651	1124.88008414274	130.705333232848	2530.07911185447	1149.02937707459	154.405670919113	1761.57045053405	660.855689939691	128.95927654881	1188.61568643739	1236.4836709917	174.887491895296	1736.01917825301	907.225189973978	142.011749802608	1594.93937981764	1568.12795440819	189.4007307503	2228.73602068108	1327.20887793318	139.868375343444	2361.20927181284	814.190237868619	152	1135.67557726175	650.735484266621	129	1429.38796833266	980.564152169061	140.994022524852	1918.56902040302	342.568350840616	127.237007348724	879.355272967532	686.973975879648	188.761821996211	1123.65428799795
295.378018793264	141.623732531983	595.600319639834	1451.10646750582	249.469328497341	2039.7897145847	680.960849837117	141.175583223722	1303.86673594337	1052.13842636489	165.783693187146	1503.74342484368	1124.60034474036	130.706113488495	2530.35349838655	1148.52196298664	154.433041202827	1761.11681715312	660.342137742436	128.976220778044	1188.21094251291	1236.38926398833	174.916442826201	1736.14546094905	907.516467713135	142.023779221956	1596.11105843159	1568.11468595377	189.443760554732	2230.5335432637	1327.2015584576	139.882517733984	2364.6598108644	814.181755396545	152	1136.98215976898	650.92034912624	129	1431.78899917649	980.546250950753	140.983599945141	1919.81292353374	342.668650708673	127.233684319371	880.294056027996	687.443173170353	188.760725338451	1125.29616376597
295.483678332825	141.563106711072	596.094724357938	1451.8897400065	249.188799239597	2041.97049700769	681.347311913946	141.16278304561	1305.03113561054	1052.95837535394	165.761665428379	1505.22458392568	1124.38148016072	130.702357181858	2530.44945562919	1148.02292670892	154.453474677753	1760.32574920551	659.957769228078	128.988250197392	1187.96311087337	1236.24052523399	174.922964475724	1735.91009468324	907.676153499791	142.04072345119	1597.15936594572	1567.82223352256	189.484111876146	2231.6717127734	1326.85882132257	139.892489880959	2367.24853113213	813.967772395224	152	1137.73919430324	650.979914468289	129	1433.63843262259	980.323047896202	140.963143752539	1920.17464220219	342.726702756258	127.214979589957	880.94739009883	687.775101566384	188.735235422966	1126.49532154338
295.59862608713	141.514479843211	596.710078475305	1452.68511803113	249.079891139735	2044.60466408879	681.778317199972	141.153555464955	1306.44814045347	1053.77999125668	165.749915625771	1506.9406295964	1124.23061373749	130.692792119722	2530.29611785928	1147.52246627692	154.462968148448	1759.15396308508	659.78307577985	128.994022524852	1187.95314684208	1236.02259516741	174.900042771343	1735.25418356428	907.717454921388	142.061156926116	1598.00337391456	1567.25826243919	189.511833797355	2232.00835296709	1326.21666404893	139.898119622694	2368.76164275956	813.548490645626	151.998672777103	1137.86116110893	650.895972996902	129	1434.72272762378	979.866714801608	140.929519851706	1919.48807481886	342.736222419398	127.183485885345	881.254918320298	687.932036685277	188.683746258311	1127.10474218836
295.7091777189	141.483510388173	597.368446920337	1453.35288689957	249.13921403031	2047.33263100235	682.179746353251	141.148210852555	1307.90368000682	1054.45668745881	165.743513910331	1508.60694767162	1124.13085125654	130.677706731964	2529.73256659031	1146.99095237665	154.458317896198	1757.50191078053	659.857670405957	128.994022524852	1188.17281601731	1235.71037315254	174.845985395584	1734.0902589115	907.654158562057	142.082403674188	1598.54791524954	1566.43504224002	189.515597970078	2231.41704938459	1325.32501304657	139.896792399797	2369.04141228716	812.932489910889	151.994022524852	1137.29309332963	650.65922803989	129	1434.87179452808	979.164511736645	140.880392344938	1917.64817610712	342.694708412739	127.143560600305	881.180759612725	687.890960693501	188.606511593298	1127.02402042455
295.799489616933	141.470526838267	597.981610868811	1453.73465498032	249.329078419897	2049.73176424445	682.471145760171	141.144887823202	1309.15912736107	1054.83619977513	165.734284163753	1509.91555200436	1124.04765013709	130.655203518919	2528.56416757999	1146.39362104728	154.435747399997	1755.25744721834	660.177323307823	128.988250197392	1188.53270312964	1235.2778615894	174.759805200392	1732.33394153496	907.494581483896	142.101082211157	1598.68782062676	1565.36621359521	189.484366657179	2229.80561782254	1324.24040052777	139.889166851605	2367.99486618785	812.134824632199	151.983599945141	1136.01458145507	650.27126376831	129	1433.97873543579	978.226305815683	140.814932899984	1914.63044607019	342.606514293072	127.101880377306	880.715009839951	687.648120306447	188.505781853155	1126.21315542794
295.855031908311	141.472792764581	598.462369146104	1453.68610620495	249.587219200129	2051.38523666805	682.580426724056	141.141805662347	1309.99035911529	1054.79467819909	165.713052522678	1510.58771291312	1123.94655431362	130.625047337026	2526.63935127441	1145.71100291063	154.392861926012	1752.36129023781	660.701048891842	128.976220778044	1188.89376903264	1234.7156494119	174.643370540533	1729.95415851258	907.250510840722	142.1138973788	1598.33376563287	1564.08972632485	189.41048043897	2227.15780000225	1323.04019878125	139.875418183627	2365.62466321142	811.190404428052	151.963143752539	1134.06018057643	649.747612940203	129	1432.02090472707	977.087558420589	140.734284163753	1910.51271446024	342.481650160186	127.064502673146	879.873599522143	687.221268829422	188.38688175109	1124.70138351683
295.867033802809	141.484446925666	598.743093626015	1453.11251441107	249.840979750449	2051.9670232999	682.461592838779	141.137676600757	1310.23191680184	1054.26938013946	165.672329071488	1510.43837181822	1123.7972581477	130.588188389791	2523.91627939297	1144.94203429881	154.329418443359	1748.85233849031	661.358523878495	128.95927654881	1189.10430612054	1234.03049018324	174.500779129891	1727.00248538294	906.937179409638	142.118459717673	1597.42690681364	1562.66949023762	189.294587253712	2223.55446895927	1321.81668060845	139.857673146993	2362.04290203632	810.154452504865	151.930847074603	1131.52514248273	649.117647233785	129	1429.07655962554	975.810524107219	140.641633533025	1905.48679931652	342.335566734504	127.035529024564	878.700704773922	686.648522087468	188.256153473884	1122.59140011963
295.833811352684	141.499400155617	598.783039541279	1451.99536826358	250.021649607459	2051.30106140201	682.106079224088	141.130209520281	1309.80181952647	1053.28007779785	165.608624564491	1509.40782550036	1123.59085874247	130.548615575764	2520.5013022246	1144.11643222258	154.247976140637	1744.89038245789	662.065284473099	128.938843073884	1189.04077506296	1233.25760557598	174.339433938232	1723.6320421264	906.581784226054	142.1138973788	1595.97107418078	1561.20377150843	189.142500576294	2219.20229506605	1320.67959144584	139.838162385343	2357.49106447635	809.103671753473	151.885042597189	1128.57637311315	648.42893901387	128.998672777103	1425.32986286388	974.484763952076	140.54185235232	1899.85764481118	342.187962414309	127.016400054859	877.266347881426	685.988237779538	188.119231691378	1120.05311850609
295.762459646186	141.512300802903	598.579346252024	1450.40708474428	250.082303101793	2049.40455260987	681.548516014723	141.118547631051	1308.72110011083	1051.93230128722	165.523700834272	1507.58420531003	1123.33876075501	130.511139658403	2516.64856085034	1143.2877789244	154.153966024561	1740.74463102362	662.73800414135	128.917596325812	1188.6311505423	1232.45312908771	174.168216612421	1720.08407188435	906.225601710292	142.101082211157	1594.04201748553	1559.82234861383	188.969177937861	2214.42680913331	1319.74779696051	139.820295442833	2352.32386834543	808.131947704498	151.828009925489	1125.44236507098	647.743732457502	128.995349747749	1421.06701756648	973.220002896315	140.440770141163	1894.02997809877	342.060031943617	127.005977475148	875.670411529902	685.313137759907	187.981321463032	1117.31189159476
295.667499533729	141.521155291219	598.165728841909	1448.5012961989	250.006680817858	2046.49328289803	680.861250957379	141.103736656951	1307.11449097333	1050.39960059086	165.424370086305	1505.19160676609	1123.07720981685	130.483271247987	2512.71956040377	1142.53092171183	154.054865841731	1736.75358469294	663.306622259323	128.898917788843	1187.87088009091	1231.69358343685	173.999048740787	1716.65478003457	905.918370181598	142.082403674188	1591.78357188879	1558.66469982662	188.791160267621	2209.63110326268	1319.13075593536	139.804764312047	2346.97226609495	807.335427803482	151.764040860857	1122.38745200479	647.13290717608	128.988250197392	1416.64508415099	972.131294381311	140.344250268879	1888.45667636193	341.971241009669	127.001327222897	874.030117829999	684.699510639792	187.84537917001	1114.62179073451
295.567915431039	141.526408931328	597.605790595976	1446.49275063048	249.810254130622	2042.93971995107	680.142648161565	141.087053926439	1305.18686906601	1048.8920492407	165.320895287215	1502.54675666594	1122.86078426969	130.471210898593	2509.12964278288	1141.93020092401	153.958861251603	1733.27261043431	663.728295257356	128.886102621199	1186.82425369698	1231.06508151433	173.845205446723	1713.65453233432	905.707135493194	142.061156926116	1589.38857107924	1557.85485323503	188.62611977889	2205.23771207502	1318.910156509	139.792734892699	2341.88949082343	806.798460900619	151.698757039074	1119.68081938287	646.669255510452	128.976220778044	1412.45651096987	971.327344726194	140.257284255818	1883.59367143795	341.938080280477	127	872.475511005761	684.222507894141	187.714200460066	1112.23823746809
295.483074807025	141.530789043774	596.980820620148	1444.61434932476	249.534192320815	2039.19726340599	679.496872899446	141.072906728724	1303.18831240223	1047.61203700532	165.224463328309	1499.99933002052	1122.74995388003	130.477887887347	2506.28210546551	1141.5628645695	153.874611547967	1730.61928723561	663.985889894979	128.881540282327	1185.60960175372	1230.64711692329	173.719127421767	1711.36191540789	905.631340446801	142.042050674087	1587.07579298776	1557.47927941559	188.487725059275	2201.63041418455	1319.12935478007	139.784222243893	2337.50701763501	806.58279100622	151.639865525898	1117.56512349302	646.41472312437	128.95927654881	1408.88157584632	970.892680067884	140.184639384955	1879.84185224781	341.970263558012	127	871.138536056696	683.941635315909	187.590313778837	1110.38927215384
295.429906639279	141.536678605543	596.373201269378	1443.07634743699	249.23157529652	2035.7152637405	679.013845883017	141.064502673146	1301.36766610979	1046.71706556956	165.143386877018	1497.86406555955	1122.80045174472	130.502622202424	2504.51332872238	1141.48168376724	153.809038772184	1729.02848219705	664.088609455429	128.886102621199	1184.38175335498	1230.50012068066	173.630225856766	1709.98711926966	905.707731313847	142.028429474207	1585.05082604307	1557.56356628095	188.384779316934	2199.08705655191	1319.78276516517	139.779659905021	2334.17708525502	806.712544665344	151.593653963645	1116.22034782563	646.40854920826	128.938843073884	1406.23731009748	970.868924806416	140.128560426151	1877.48896818378	342.070044738717	127	870.134987034845	683.891414919255	187.477202148333	1109.24391746964
295.4201808734	141.545201574119	595.851825768757	1442.03744661216	248.955352970538	2032.84264693582	678.756067004139	141.064502673146	1299.92173927453	1046.29795067396	165.082229950902	1496.35988385366	1123.04654619535	130.540211520185	2504.02014811358	1141.70127497117	153.766002071391	1728.60422509031	664.05911436078	128.898917788843	1183.29249251915	1230.6464262849	173.583205758969	1709.62860786211	905.931828988025	142.023499605216	1583.47817333081	1558.06804020771	188.320299361464	2197.74103327693	1320.81857525101	139.779919725055	2332.13351345689	807.175045817974	151.564940135098	1115.74301829684	646.663480275702	128.917596325812	1404.74532753297	971.253534554973	140.09063400648	1876.68716521205	342.231594303067	127	869.556418226548	684.077996034624	187.379416774085	1108.89875627126
295.460340491452	141.556233883046	595.461979041495	1441.58216861433	248.747805546724	2030.78367725894	678.749051590388	141.072906728724	1298.9697704548	1046.36882360839	165.041506499712	1495.58119490621	1123.48881761831	130.583885870952	2504.84425135611	1142.18689224961	153.746401717676	1729.31253428168	663.922369560888	128.917596325812	1182.4665115041	1231.06193156226	173.575992102788	1710.26695253841	906.273975289074	142.028429474207	1582.46890529886	1558.88894970049	188.291691205173	2197.58553800807	1322.14063535213	139.786085775078	2331.48027950188	807.917930514213	151.556248734635	1116.13865721389	647.159425919492	128.898917788843	1404.50718882585	971.991844494485	140.070480148294	1877.43594446926	342.441923640774	127	869.45989731323	684.476459610042	187.302572083708	1109.36803940694
295.550027874322	141.56907657554	595.226386576668	1441.71698357225	248.633224107597	2029.58634165119	678.983493417151	141.088381149336	1298.54617238212	1046.87903771368	165.017727277756	1495.50645344759	1124.09950663459	130.626802274984	2506.85403175917	1142.8702596278	153.748428454179	1730.98443777769	663.703068628769	128.938843073884	1181.97720655912	1231.68492302503	173.6020807369	1711.76246277149	906.688604313181	142.042050674087	1582.06995992585	1559.87849409532	188.29186784943	2198.48683187161	1323.62216504706	139.79904869476	2332.17890828793	808.857560978263	151.567487715978	1117.32257867385	647.849282728111	128.884775398303	1405.49229194297	972.99120285542	140.065829896043	1879.58994121111	342.683140032737	127	869.855794267915	685.036018985002	187.249569773162	1110.58286730893
295.684293532347	141.58433630369	595.143802102365	1442.37562497478	248.617700842898	2029.1670671962	679.419811690781	141.107059686304	1298.61272971872	1047.72941044085	165.005977475148	1496.02353595505	1124.82605751575	130.664962322244	2509.78440741459	1143.65902390666	153.767625748072	1733.35884151166	663.422936033606	128.95927654881	1181.84662679534	1232.42480367491	173.650143482056	1713.89072352282	907.125108973236	142.061156926116	1582.27047464878	1560.88038305435	188.310993898165	2200.23231379722	1325.13044583669	139.819056133314	2334.06844909221	809.895834037617	151.596174019676	1119.13980176449	648.668602056957	128.876890030076	1407.54804585943	974.138624386445	140.072906728724	1882.88736085228	342.936824549751	127	870.70642278391	685.691771953678	187.221488032368	1112.4026588487
295.852043139219	141.601944309309	595.200454875719	1443.43910974669	248.690091721986	2029.36476850664	680.000281215475	141.125647181409	1299.08594306646	1048.79801483825	165	1496.98013709566	1125.60754999214	130.697800405207	2513.30067348171	1144.46054661677	153.796604134255	1736.13988853354	663.108597835522	128.976220778044	1182.0640447468	1233.18932234875	173.707798744627	1716.39389655564	907.538491598538	142.081076451291	1583.02164949958	1561.76119087875	188.338368573197	2202.59241158841	1326.54325929671	139.844051947113	2336.90427929285	810.934959229557	151.636786839812	1121.39808862745	649.545676979605	128.874352818591	1410.42271413498	975.321311005645	140.087053926439	1886.98884709966	343.18542804054	127	871.927610865099	686.375065879368	187.214040748598	1114.6347888292
296.04072345119	141.622405309086	595.373572366465	1444.74931028692	248.827854132652	2029.98993465161	680.656222694799	141.142238939629	1299.86182307668	1049.9565255658	164.994022524852	1498.22225523502	1126.38766059496	130.7252424582	2517.05271494458	1145.20263153506	153.827651892254	1739.04521561681	662.796438529704	128.986922974495	1182.59715266919	1233.90477166214	173.761915471811	1719.02512365113	907.897986743978	142.096431958906	1584.24480075228	1562.4360168296	188.363190442512	2205.35979980616	1327.7674242832	139.86916109174	2340.39340035438	811.890960414105	151.683684207112	1123.89480068351	650.415512621107	128.875138566887	1413.80618825929	976.44570365079	140.102409434054	1891.53242836893	343.417170204715	127	873.401020811414	687.026155709731	187.220342132806	1117.0630271201
296.232893008853	141.643384996214	595.63734441367	1446.1395780773	249.001327222897	2030.86912898253	681.32073864979	141.15462082999	1300.83916989342	1051.089183361	164.983599945141	1499.62859804274	1127.12844621208	130.749286237792	2520.7575113912	1145.84417912476	153.852761036881	1741.86392561024	662.536253319224	128.990699495499	1183.42471858204	1234.53428028772	173.80388297012	1721.60398886442	908.200268403941	142.102147576192	1585.85092988771	1562.89808486583	188.378572142572	2208.38382788474	1328.76466888812	139.889446468345	2344.24354233382	812.713171748309	151.730263299482	1126.45134528803	651.230525502739	128.876872874622	1417.3705604068	977.456374156802	140.1138973788	1896.1761681741	343.627753534197	127	874.990687992388	687.605471310081	187.231379644816	1119.47741503808
296.412514390243	141.660306507772	595.963881905316	1447.45767404254	249.179450565393	2031.87004397543	681.936300417319	141.162239137273	1301.93155538984	1052.10522356574	164.963143752539	1501.11943958412	1127.81161865938	130.769659527775	2524.21496198222	1146.37634413623	153.863012800595	1744.46291989667	662.387701826102	128.986922974495	1184.53743234041	1235.08075753427	173.828266824552	1724.02338315473	908.467555056089	142.094680495717	1587.74801740983	1563.21041089993	188.378813011071	2211.57593394175	1329.54879855153	139.898663797069	2348.19825533058	813.383910095785	151.771409776023	1128.92860303233	651.964435602693	128.876358924871	1420.82026870595	978.335140942396	140.118459717673	1900.63954332035	343.818255929337	127	876.562387070467	688.096060259249	187.238334571621	1121.70370744038
296.566332316483	141.668588657474	596.327711980619	1448.59355947459	249.334940253814	2032.91025447187	682.46429345066	141.164807348377	1303.07490428888	1052.9482107313	164.930847074603	1502.65608666333	1128.43793714411	130.784766418268	2527.32659468506	1146.81748803175	153.851962870731	1746.78642435221	662.410020581135	128.976220778044	1185.94083050555	1235.58038517977	173.833632067175	1726.25226740414	908.741752087916	142.073173927611	1589.84945848923	1563.4808252109	188.364405993322	2214.89094144125	1330.17363246068	139.89211942987	2352.05451198745	813.915077151701	151.803066638062	1131.23316143773	652.613505078632	128.872222622371	1423.92663348143	979.096644706202	140.1138973788	1904.72589136488	343.994022524852	127	878.006322876384	688.504257952082	187.23368431937	1123.62462897566
296.684361190609	141.662704657926	596.703870545896	1449.48351520464	249.448837632614	2033.95713749612	682.88406367038	141.162239137273	1304.22817583051	1053.59137245457	164.886369820086	1504.22666538834	1129.01882431333	130.791037218714	2530.07614612374	1147.19955061718	153.814562448895	1748.83380909746	662.653628960313	128.95927654881	1187.64389632868	1236.08502034681	173.821674417106	1728.30923754867	909.07622995045	142.03992528504	1592.06824591242	1563.83566495155	188.337474627582	2218.29131664395	1330.72114244399	139.869690148487	2355.65724272037	814.338661671912	151.823359673238	1133.30553780883	653.188270620021	128.863388764279	1426.54144943315	979.773735854552	140.102409434054	1908.3169851928	344.161362347113	127.001327222897	879.243144168705	688.851508283037	187.214979589957	1125.18245124114
296.763564565941	141.642398651097	597.069736433295	1450.12419191921	249.512889873023	2035.00677071488	683.195628475806	141.15462082999	1305.36508540968	1054.03909575911	164.832660177739	1505.82442330516	1129.56935665568	130.787286474299	2532.49630617135	1147.55778104994	153.751757449735	1750.63199276509	663.147307113535	128.938843073884	1189.64265581671	1236.64291103847	173.796678603307	1730.23419124791	909.523954802978	142	1594.32058723003	1564.38738314465	188.304158905443	2221.7234469883	1331.28134786845	139.832939794479	2358.90104230901	814.69703620539	151.831612571582	1135.1139448015	653.706526984236	128.850573596635	1428.59877682017	980.399737644086	140.087053926439	1911.36244862176	344.324762490944	127.005977475148	880.230051007998	689.163709598112	187.183485885345	1126.37337012704
296.806944141613	141.611426137146	597.405086426878	1450.55699924184	249.529740360619	2036.06532857332	683.414448982579	141.142238939629	1306.46492949946	1054.31824042993	164.775790663465	1507.42954226074	1130.09963116526	130.771782868363	2534.63922150825	1147.9169819797	153.667354910176	1752.2139585977	663.890741691728	128.917596325812	1191.90791030229	1237.28146425992	173.762192447299	1732.06156433168	910.120273664353	141.96007471496	1596.52864042363	1565.19700733049	188.271424212624	2225.10693084386	1331.92618927385	139.788084640448	2361.72785884644	815.026389762169	151.82843764055	1136.64710535745	654.185304217538	128.836166578886	1430.10722362379	980.999629040855	140.072906728724	1913.86286429058	344.484199789524	127.017727277756	880.95979037805	689.46489524544	187.143560600305	1127.23486488108
296.822551207266	141.575629913695	597.692402085635	1450.85845757276	249.512528932499	2037.13107309882	683.566033748208	141.125647181409	1307.50295184213	1054.47125582855	164.72253626103	1508.99821737394	1130.61156251946	130.747361189258	2536.54629883986	1148.28528652653	153.572306884342	1753.6058749667	664.850468568571	128.897590565946	1194.37252846483	1237.99696627925	173.720255879036	1733.80310060044	910.879475065786	141.926826072389	1598.62474109826	1566.27393661049	188.245710076382	2228.34029431935	1332.70385201773	139.742969735956	2364.1227589097	815.353693545841	151.814295250009	1137.91025942271	654.634081698838	128.823618472186	1431.12905611448	981.576429136042	140.064502673146	1915.84945358698	344.635656057877	127.040179276815	881.452438501282	689.76650182177	187.103207600203	1127.82772192895
296.822682468544	141.54265051847	597.919235909378	1451.12216685002	249.480166369456	2038.1862627016	683.680874372462	141.105732463407	1308.44374639833	1054.55067063081	164.680588977087	1510.4644529004	1131.09372770549	130.719190514	2538.22595863984	1148.64829782231	153.480949417978	1754.81655027737	665.959681398475	128.881452368949	1196.92983407715	1238.75300826858	173.673389095498	1735.4416550327	911.787499322206	141.905319504283	1600.55601278022	1567.56890243401	188.233297186401	2231.32159062375	1333.6259831748	139.70648597741	2366.10956342325	815.689337065971	151.790906275847	1138.92449328907	655.055353174255	128.815186891758	1431.7675918405	982.119043225571	140.063175450249	1917.37864257664	344.772882225897	127.076252475754	881.750156384829	690.070374254841	187.069152925397	1128.2239299323
296.821612365907	141.519863203852	598.081370246603	1451.43794400725	249.452532361625	2039.20682971825	683.788653600905	141.083730897085	1309.2545781062	1054.61026040459	164.654810889762	1511.76135061812	1131.52769399149	130.694736174802	2539.65721555943	1148.98166869229	153.409102713265	1755.84513758402	667.128785683501	128.869790479719	1199.44281992786	1239.49426838271	173.624349502108	1736.94134033723	912.804683460936	141.897852423808	1602.29299901891	1568.98909454202	188.235523557995	2233.9753668837	1334.6627195618	139.685239229338	2367.74664539393	816.02521637841	151.757542195049	1139.72692662529	655.446009463534	128.811863862404	1432.1542647685	982.607181721164	140.068256476474	1918.53045637435	344.888106827594	127.125659599262	881.910172068792	690.370366313015	187.047278827172	1128.49889142585
296.831604102071	141.511156813857	598.187376985725	1451.8825961119	249.446930850162	2040.18251731386	683.916031477337	141.062484149013	1309.91734294114	1054.7022970115	164.647343809286	1512.84756923522	1131.89752733848	130.680588977087	2540.81599049643	1149.26426694739	153.369177428224	1756.70330444162	668.26362496999	128.862323399243	1201.76877749723	1240.1666567028	173.576957136592	1738.27331225847	913.873089497986	141.903568041094	1603.83274977686	1570.42360786302	188.25142401498	2236.27618141048	1335.75284667631	139.683938198886	2369.11298835933	816.342807425552	151.715605626785	1140.3678343667	655.799194573053	128.813195892475	1432.42686725161	983.020318505812	140.075304123831	1919.40195522233	344.975072840655	127.184284051494	881.995091199675	690.657337159329	187.040179276815	1128.72236638138
296.861679970635	141.516999899242	598.257024701823	1452.49522558145	249.474909891632	2041.12474767538	684.08027645485	141.045373703441	1310.44094987549	1054.86236944158	164.657330945792	1513.72191101842	1132.19535310505	130.682610975989	2541.70406905139	1149.48927125736	153.369177428224	1757.43154923667	669.282751550802	128.858194337653	1203.79265648918	1240.73477590005	173.537031851552	1739.43683345478	914.929529677955	141.918923548709	1605.19757025026	1571.76985182656	188.276512479758	2238.25730888101	1336.81863419152	139.702616735854	2370.30621589362	816.620151512886	151.666289545141	1140.90688255129	656.110619245191	128.815710386284	1432.71085179144	983.350004330259	140.078630212097	1920.09690844841	345.031667427899	127.244642811461	882.063225104396	690.924945919601	187.046700926337	1128.95247017603
296.914013338481	141.533601957285	598.318500395418	1453.27229022792	249.539400146924	2042.07169394631	684.285493326768	141.035529024564	1310.86179999738	1055.10400034059	164.680057871882	1514.43065236989	1132.43052155078	130.701289512958	2542.37055885945	1149.67325363144	153.409102713265	1758.10560448645	670.136628129211	128.855112176798	1205.45075512384	1241.19315492025	173.511250289457	1740.47110794754	915.914576146563	141.938843073884	1606.42340498642	1572.95538020063	188.306945626508	2239.99924411329	1337.78192351079	139.737979682022	2371.42321141516	816.838789062478	151.61232008276	1141.4059728971	656.378986734357	128.815622472906	1433.11227101193	983.603570134692	140.073173927611	1920.72825969956	345.059575711445	127.297383264146	882.164981313661	691.17384905393	187.062484149013	1129.23623209262
296.984730727075	141.553345859289	598.398884366497	1454.17138563046	249.63759260601	2043.06978921181	684.52244146201	141.035529024564	1311.23228214848	1055.41397738398	164.709983485098	1515.0476654812	1132.62688916189	130.732002206875	2542.91673742179	1149.85019030467	153.482276640875	1758.82850660368	670.811091393081	128.851789147445	1206.74225382928	1241.56612301384	173.505534672171	1741.45085670969	916.786226257916	141.95927654881	1607.55504962188	1573.95027062051	188.340216986754	2241.61661094467	1338.58424077004	139.784222243893	2372.56225121769	816.992464847694	151.560012907358	1141.92522431315	656.608377428349	128.80961100526	1433.70309442389	983.804952757053	140.057302791557	1921.40148843018	345.064676396433	127.334766530527	882.339412772372	691.409012144954	187.082403674188	1129.60776033674
297.06460192738	141.568271564389	598.516726921721	1455.12165367973	249.761334663686	2044.15983712917	684.771091567127	141.045373703441	1311.60158711852	1055.75848628477	164.740261638901	1515.65141834438	1132.81417209912	130.767822189035	2543.46929327135	1150.055084376	153.576957136592	1759.70144329718	671.321566425997	128.845117312148	1207.71765839268	1241.89109496968	173.523427807126	1742.45827852185	917.518264905587	141.976220778044	1608.62643061042	1574.76084730107	188.375743973491	2243.21853609178	1339.1901135272	139.834415115697	2373.79879067804	817.084201706424	151.516598376625	1142.50942713555	656.806596022923	128.795013374808	1434.5204010126	983.99017933221	140.031493704612	1922.20700847166	345.055179450969	127.350904727525	882.611500365473	691.640854570788	187.101082211157	1130.08978260056
297.142762434155	141.571358532418	598.677117661844	1456.05298597946	249.899794579003	2045.35436037407	685.008551652454	141.06381137191	1311.9986759704	1056.09719275977	164.765637448563	1516.29859565677	1133.0205721819	130.797558868236	2544.12397241703	1150.31060354839	153.677777489888	1760.77361141111	671.698999811479	128.83256670214	1208.44191176253	1242.20282043103	173.563612912201	1743.53868375806	918.102587005973	141.989577420289	1609.6494271031	1575.41357577021	188.416467424681	2244.87250256813	1339.58784178485	139.882067301247	2375.16194393996	817.122594686523	151.490003541385	1143.17741992483	656.982870547881	128.770603743787	1435.56316240767	984.194598977034	140	1923.2025542564	345.039396228293	127.345189110238	882.992846284498	691.877483118112	187.1138973788	1130.69108682262
297.211656560603	141.559753353363	598.871918947625	1456.91576630696	250.043007445895	2046.64218166596	685.219112264259	141.087053926439	1312.42883031871	1056.3985890221	164.783693325088	1517.01184815502	1133.2606479333	130.812914375851	2544.92323316959	1150.61623862415	153.77088641944	1762.02739523683	671.97310594512	128.81266697367	1208.96999520283	1242.51630925022	173.620497416007	1744.68372953205	918.538279249398	142	1610.60845415418	1575.93015121848	188.463222140223	2246.58369189782	1339.77632058838	139.922443019025	2376.6204844694	817.116423915307	151.486856135202	1143.91589257555	657.143871130682	128.738848540453	1436.79036643327	984.44213472935	139.968506295388	1924.40063189948	345.023779221956	127.321162486102	883.480315499934	692.121159173647	187.118459717673	1131.40560920174
297.265980997306	141.535874877173	599.083274902127	1457.68669749969	250.183485885345	2047.98344757801	685.396714012113	141.112832013765	1312.87005923805	1056.64642242266	164.793861775083	1517.77378432055	1133.53564488132	130.808812839111	2545.82092014785	1150.95088372023	153.844863320374	1763.36497122185	672.166784552267	128.784766418268	1209.32119114964	1242.82456994781	173.685418514846	1745.81314841366	918.826979546647	142.010422579711	1611.45875093583	1576.30897532311	188.516130975169	2248.27996317536	1339.75837921551	139.953299073663	2378.07149417554	817.067481847837	151.510612639482	1144.67660931818	657.288227848678	128.702450657458	1438.1186078563	984.734064837494	139.94402443134	1925.75242788965	345.010422579711	127.286693485548	884.05113530715	692.362868885137	187.1138973788	1132.20395920892
297.306591048095	141.506250265967	599.290084128323	1458.37202891445	250.316859967263	2049.3237020058	685.546041161244	141.137676600757	1313.28739274553	1056.84198553041	164.798786836899	1518.53604508041	1133.83105727276	130.785959251402	2546.70778847692	1151.27750231745	153.893990827142	1764.63871190588	672.289982435569	128.750684218612	1209.48415644487	1243.09715993873	173.748151744728	1746.80232726883	918.970855607282	142.023779221956	1612.13419612885	1576.52747265771	188.571253715963	2249.82283738666	1339.54537166621	139.974893555147	2379.35876646006	816.975140340223	151.560377796225	1145.38840010419	657.409865506671	128.66708771129	1439.42632864089	985.050015248967	139.93147632464	1927.14862356521	344.998672777103	127.250091229861	884.664176969857	692.584405861837	187.101082211157	1133.03236225353
297.337562540961	141.476297127901	599.473308910854	1458.99336074101	250.440420369924	2050.60400565632	685.680127533761	141.159183168863	1313.6391014036	1056.99854766069	164.798786836899	1519.23192930109	1134.12476481301	130.750684218612	2547.44482381959	1151.55524000126	153.917770049098	1765.68904478728	672.343327031159	128.714633737349	1209.43282005844	1243.29391486326	173.799293175971	1747.51677569946	918.972232061349	142.04072345119	1612.56615753363	1576.54651944215	188.620930959328	2251.04759111488	1339.15644658891	139.988250197392	2380.31857561417	816.839414901974	151.62971000713	1145.97812519428	657.495940081568	128.638564495446	1440.57389410169	985.347892652477	139.934446813408	1928.44087740169	344.983599945141	127.219813076059	885.26763804584	692.760238881655	187.082403674188	1133.82167908511
297.366798047403	141.451192720875	599.621539035994	1459.57646633908	250.553252383689	2051.77086676685	685.812666835728	141.175054304917	1313.88639349899	1057.12651702374	164.79518899798	1519.78047713934	1134.38641457397	130.710786458422	2547.90761006016	1151.7443307669	153.919788573231	1766.38582038231	672.323039538257	128.680057871882	1209.1512313688	1243.36997710854	173.831529395805	1747.85116445586	918.834693180621	142.061156926116	1612.70304425018	1576.31840176114	188.655399959881	2251.7978230461	1338.62306009274	139.995349747749	2380.82758822205	816.659588768805	151.708656262201	1146.38966879283	657.532715922599	128.622755080325	1441.43305979551	985.575523827871	139.951798127479	1929.47543131975	344.958493500288	127.201113908867	885.808956638023	692.861237557896	187.058502480322	1134.49845541341
297.40217207902	141.432257492358	599.739099291112	1460.1420256307	250.655749731121	2052.79787228069	685.954558683139	141.183485885345	1314.00765315112	1057.22458425256	164.787016354442	1520.10478948626	1134.58640078949	130.67461150194	2548.02679278455	1151.81117647847	153.905641375516	1766.65257482887	672.226279118523	128.651353470644	1208.65542017945	1243.28713351785	173.838763873316	1747.75744981818	918.571021457528	142.082403674188	1612.52741244926	1575.80993965853	188.663697150546	2251.95727056467	1337.99556590503	139.998672777103	2380.84074686157	816.440978302482	151.783304805608	1146.59675030261	657.510069027783	128.622755080325	1441.90677732657	985.680864717345	139.978239302177	1930.11942434196	344.917770049098	127.194800106805	886.245940268678	692.861631198408	187.024786832204	1134.99815535485
297.45343534423	141.416990919207	599.845611140704	1460.70632655106	250.747365996432	2053.68816902611	686.108434998241	141.183485885345	1313.9962043426	1057.26821917943	164.770082553127	1520.12660499088	1134.69184759064	130.647506191717	2547.79231470139	1151.72293866471	153.878536065294	1766.45595653942	672.053947533963	128.630943754427	1208.00165769261	1243.01099875631	173.814372418836	1747.24230483474	918.201350552815	142.101082211157	1612.0592408987	1574.99772342587	188.633940453443	2251.45917295131	1337.33308880214	140	2380.39833355105	816.187948748787	151.838885845226	1146.60036625328	657.421521662109	128.637237272549	1441.95138838417	985.618815770394	140.002706197171	1930.28655103379	344.856613122982	127.197343921545	886.55807767695	692.738691872911	186.967737795208	1135.27976326943
