Light	Light	Light	Light	Light	Light	Light	Light	Light	Light	Light	Light	Light	Light	Light	Light	Light	Light	Light	Light	Light	Light	Light	Light	Light	Light	Light	Light	Light	Light	Light	Light	Light	Light	Light	Light	Light	Light	Light	Light	Light	Light	Light	Light	Light	Light	Light	Light
Optode1-730nm	Optode1-Ambient	Optode1-850nm	Optode2-730nm	Optode2-Ambient	Optode2-850nm	Optode3-730nm	Optode3-Ambient	Optode3-850nm	Optode4-730nm	Optode4-Ambient	Optode4-850nm	Optode5-730nm	Optode5-Ambient	Optode5-850nm	Optode6-730nm	Optode6-Ambient	Optode6-850nm	Optode7-730nm	Optode7-Ambient	Optode7-850nm	Optode8-730nm	Optode8-Ambient	Optode8-850nm	Optode9-730nm	Optode9-Ambient	Optode9-850nm	Optode10-730nm	Optode10-Ambient	Optode10-850nm	Optode11-730nm	Optode11-Ambient	Optode11-850nm	Optode12-730nm	Optode12-Ambient	Optode12-850nm	Optode13-730nm	Optode13-Ambient	Optode13-850nm	Optode14-730nm	Optode14-Ambient	Optode14-850nm	Optode15-730nm	Optode15-Ambient	Optode15-850nm	Optode16-730nm	Optode16-Ambient	Optode16-850nm
540.813181574737	141.998672777103	892.177691980534	836.36198199823	224.096170101045	1098.63419544409	597.888482791278	149.971570525793	889.078367032001	1236.82908051711	158.856613122982	1555.95288856934	1175.34149361277	139.077556980975	2116.51686969445	1064.95887696995	147.344250268879	1552.26648150003	475.773377748556	134.974893555147	726.518566349158	1159.35071419985	168.196033854103	1623.88575042008	630.251953694218	148.274287836478	900.427383808908	962.126538260482	182.890641201363	1237.72126270176	1163.81734393179	183.99637366477	1914.5863692807	1272.81921485904	146.998672777103	1611.42023989527	977.102305866167	172.998672777103	1945.13103456981	1244.53304999449	135.421026239159	2244.80588930439	813.082573133448	210.916472399509	1573.81041230974	1082.3568554077	139.898917788843	1784.73434916091
540.578037223347	142	891.111565960147	835.709252095292	223.680239205848	1097.03168184535	597.622210586706	149.947526746202	888.139132309716	1235.86416435645	158.774209448794	1554.09120149176	1174.92046380535	139.046700926337	2115.67148966434	1063.81426190266	147.257284255818	1550.45594115967	475.691250734193	134.954626296559	725.975239271139	1158.07499240831	168.084936148072	1622.27238694124	630.16623216762	148.25798689791	899.617842903156	961.863961915076	182.779136410495	1236.2254270784	1164.12281888546	183.874617110188	1913.69469947082	1272.73180134614	146.995349747749	1610.03263472236	976.23143328364	172.875039312653	1942.99702484458	1243.47950211062	135.350651984319	2242.19099457158	812.039450005059	210.630838937972	1571.45390532802	1081.49387784191	139.886102621199	1782.8320137204
540.345057328488	142	890.126169257134	835.087466915416	223.266514002396	1095.60972841753	597.394233415111	149.915063851928	887.340941302877	1234.9535539505	158.673127237637	1552.46497752607	1174.59843969553	139.025106444853	2115.19562984207	1062.74657530494	147.183312162058	1548.98466500126	475.706597841869	134.927093271276	725.603167308982	1156.95053234182	167.980893747971	1621.16952404901	630.14248419766	148.242188706181	899.069586223918	961.762128266532	182.678837513898	1235.35413876823	1164.56073052654	183.768423914221	1913.48789401999	1272.79519738638	146.988250197392	1609.30436809889	975.514978258917	172.761141933853	1941.31484481622	1242.62098934229	135.298007707008	2240.04334647107	811.138967086539	210.363199953077	1569.55761133057	1080.77418756327	139.881540282327	1781.23470488162
540.15568210257	142	889.314620935675	834.586961657259	222.874956581605	1094.52785418749	597.247902130895	149.875545651725	886.765153779714	1234.22701130644	158.559229858837	1551.2614948894	1174.43041291629	139.011749802608	2115.17119058842	1061.86030930454	147.1239101739	1548.01167142917	475.847985078522	134.893817103856	725.4672032338	1156.06351212659	167.881523126872	1620.63390998774	630.197829331117	148.225536559432	898.853616056389	961.847122358766	182.590308216616	1235.1935769129	1165.15538631471	183.683504921604	1914.0682208669	1273.00849817903	146.976220778044	1609.2848372077	975.009891792382	172.665233469473	1940.26277962315	1242.03368738053	135.261846594691	2238.62275656242	810.464795924148	210.128386702864	1568.36016258184	1080.27893826866	139.886102621199	1780.18424315269
540.040905950794	142	888.740612242291	834.285780768333	222.520983467817	1093.90349952924	597.21474939766	149.83178338758	886.463074034268	1233.77864931024	158.440770141163	1550.6035716611	1174.44837087657	139.003323029354	2115.5791052428	1061.22232366442	147.078884203872	1547.56998875251	476.13166684009	134.856867114757	725.599688932325	1155.4570680078	167.785007992189	1620.57828277392	630.344282117228	148.207265107301	898.999437983349	962.111835296132	182.511685870605	1235.69458404247	1165.91203726931	183.620401240633	1915.41115543858	1273.33971320871	146.95927654881	1609.88032336758	974.737424128559	172.58924285158	1939.90374056432	1241.74316601596	135.237807552701	2238.04290969888	810.061054130056	209.932073232022	1567.98627327922	1080.04677185356	139.898917788843	1779.82235175236
540.017018890658	142	888.429903190115	834.234052569863	222.214650073833	1093.79573314073	597.305627934976	149.785971669255	886.449815208342	1233.64998163477	158.326872762363	1550.53438406124	1174.65736509472	138.995349747749	2116.32761962604	1060.85131449474	147.045373703441	1547.5819162576	476.556198093885	134.820295442833	725.998933300291	1155.12302690534	167.690068767097	1620.80709990978	630.586629340751	148.186804107525	899.489680773088	962.522022359206	182.44209736406	1236.69245558159	1166.81986313292	183.576974292047	1917.37607985555	1273.73899848987	146.938843073884	1610.88646386356	974.683897384433	172.529151290499	1940.18976881266	1241.72453810457	135.219891700069	2238.27434972698	809.92926001424	209.773867514816	1568.44111862055	1080.07730862231	139.917596325812	1780.18466407243
540.080560794028	142	888.364893693693	834.443278414125	221.958522017399	1094.19282436063	597.510105244214	149.738951571458	886.698176433491	1233.81813630809	158.225790551206	1551.00666205624	1175.03121330878	138.983599945141	2117.27173443778	1060.71287140188	147.019128969705	1547.88748436997	477.101900632422	134.786059582633	726.627014746882	1155.00162145168	167.596718194051	1621.0689327233	630.91807527566	148.163833421114	900.264382698065	963.024408960101	182.380394225742	1237.96159122151	1167.84697821225	183.547283615266	1919.74111304292	1274.1466891679	146.917596325812	1612.04886956161	974.809462259526	172.478153407545	1940.9860804853	1241.91633927946	135.202278528136	2239.16880084774	810.035862135968	209.648764507783	1569.62329503791	1080.33782118331	139.938843073884	1781.21457929892
540.212994390109	142	888.494417657743	834.888187195792	221.750100710714	1095.02273744038	597.799085631757	149.691302514394	887.148428343528	1234.21102890223	158.143386877018	1551.90383711622	1175.51888056009	138.963143752539	2118.26661619399	1060.73614308855	146.994022524852	1548.30157946863	477.730190730313	134.756590935836	727.422485122321	1155.00069666967	167.506489406152	1621.12952040002	631.319846624861	148.139003823654	901.235366046113	963.558609750427	182.326336849983	1239.27446894245	1168.94892186936	183.523965125869	1922.2571899497	1274.50981251483	146.898917788843	1613.12972773179	975.061919647662	172.428484426176	1942.12552493798	1242.24162291142	135.180943866686	2240.52944912651	810.324491977276	209.549955216514	1571.37068747556	1080.78299495842	139.95927654881	1782.80839233012
540.384899388959	141.998672777103	888.750427178094	835.513949775548	221.583734815716	1096.175192427	598.134486553902	149.6430486693	887.723752641846	1234.72928462937	158.082229950902	1553.07500965409	1176.0553216084	138.930847074603	2119.19663272616	1060.83369020015	146.964470975436	1548.66585393342	478.392846808384	134.732547156245	728.312684084249	1155.02246786647	167.422091604195	1620.83100773923	631.764907133048	148.112832013765	902.304027111188	964.069211999714	182.280265311625	1240.44993495142	1170.06896445959	183.499807240455	1924.69277527244	1274.78786950862	146.8861026212	1613.958647183	975.380940437944	172.374945807342	1943.43900783628	1242.6190028213	135.15462082999	2242.14818979516	810.727072848647	209.471760585564	1573.49139991084	1081.35825239836	139.976220778044	1784.83765069974
540.566708280168	141.995349747749	889.063190139584	836.252790478738	221.451659726423	1097.52568539602	598.477728550148	149.594308450664	888.346431013188	1235.27606598117	158.041506499712	1554.37084251171	1176.57551605669	138.886369820086	2120.00500841241	1060.92630711958	146.925074747143	1548.89077932986	479.038233973166	134.714200460066	729.229770971328	1154.98882267219	167.345551299331	1620.12928124768	632.220586614016	148.087053926439	903.377249233328	964.513679756376	182.241936614291	1241.38065800799	1171.14770047831	183.469731371892	1926.86374433237	1274.96497173149	146.881540282327	1614.45744514756	975.708360546204	172.315110541901	1944.78420224025	1242.97596995779	135.124861433113	2243.84652092798	811.175489886064	209.409276436551	1575.80139286165	1082.00882815793	139.988250197392	1787.17617081474
540.731375726185	141.988250197392	889.379284837151	837.032994650796	221.345665405154	1098.95898433292	598.798860228954	149.546417124928	888.9561503644	1235.77575339084	158.017727277756	1555.67572280829	1177.02488394934	138.831332954842	2120.68076508944	1060.95965064143	146.873013177841	1548.96041222765	479.617551567868	134.701818569705	730.115623849273	1154.85783917096	167.278531003891	1619.08730667525	632.656379715404	148.062484149013	904.376975628533	964.866909694773	182.210695001568	1242.0339946714	1172.12710273623	183.430236930398	1928.64461364923	1275.04821778838	146.8861026212	1614.63581111671	975.990953294901	172.250620286609	1946.05729852007	1243.25712344263	135.094153476797	2245.4928939781	811.608089708309	209.357039244078	1578.14087470041	1082.68446350466	139.994022524852	1789.70632089611
540.858424599543	141.976220778044	889.66451537944	837.790489994303	221.25719634244	1100.38283506948	599.076203724328	149.500605406604	889.511281785718	1236.18112997681	158.005977475148	1556.9171208659	1177.36388257066	138.769813188318	2121.24550671253	1060.90982229755	146.809738473358	1548.91978545723	480.092080401803	134.695955200381	730.925609552408	1154.62562624878	167.221123143501	1617.84319561085	633.043509724477	148.04072345119	905.249724701511	965.114816231983	182.184284051494	1242.43319031721	1172.94805662149	183.38191232738	1929.96665457092	1275.05455970313	146.898917788843	1614.56446088887	976.181894933527	172.184284051494	1947.17436670873	1243.42317272718	135.065807178367	2246.98438117161	811.97278114663	209.307282349331	1580.37047002735	1083.33551690879	139.994022524852	1792.30697577229
540.934968032893	141.95927654881	889.899728720915	838.471170122324	221.178400051946	1101.7262554383	599.298417254406	149.457714370397	889.988169883623	1236.47125700923	158	1558.0570498107	1177.56616039337	138.706136206171	2121.71658197757	1060.7775700102	146.737629910783	1548.83616161114	480.434743893789	134.69618882797	731.623892552539	1154.30895457575	167.171020884849	1616.55133332301	633.362308874004	148.023779221956	905.96283087545	965.255456327933	182.159607409155	1242.62935000585	1173.56210199395	183.327824021576	1930.80123781257	1275.0110697779	146.917596325812	1614.33890132429	976.24547326313	172.119682124115	1948.06636265205	1243.45575770509	135.042050674087	2248.24819798099	812.227572262088	209.250158843282	1582.3718868205	1083.91994824482	139.988250197392	1794.85583401137
540.951977457829	141.938843073884	890.073103262349	839.030117709489	221.102409434054	1102.93450152399	599.458119130569	149.419287331766	890.372765008604	1236.63930485238	157.995349747749	1559.07551066466	1177.61674965074	138.645059952523	2122.07683374414	1060.57615694778	146.66243745904	1548.75921117584	480.630606931895	134.701573867298	732.178964360926	1153.92660174658	167.124861433113	1615.32055656236	633.597537546008	148.010422579711	906.502362548718	965.284726485309	182.131699125609	1242.66817743802	1173.92387720357	183.271226305846	1931.14345192914	1274.92893510587	146.937515850987	1614.03808724039	976.162966557936	172.058525197998	1948.66927828374	1243.35871579166	135.023779221956	2249.22508938877	812.347250609431	209.173473090245	1584.04608597779	1084.40833280046	139.974893555147	1797.22846713576
540.90686561225	141.917596325812	890.178921271432	839.435794407236	221.022551253293	1103.96975871231	599.554471058201	149.385497214595	890.659790420923	1236.6875542313	157.986922974495	1559.96567288955	1177.50802949349	138.588980993719	2122.27707816087	1060.32202374448	146.588980993719	1548.70394748315	480.675628094749	134.709104261203	732.563382717368	1153.48910401275	167.077753421938	1614.1924733635	633.742910870542	148	906.863788755832	965.199365631463	182.09335327282	1242.56969199012	1174.00426276066	183.213818445457	1930.99598693486	1274.80844241951	146.953299073663	1613.6966865116	975.930274862862	172	1948.92326685723	1243.15077818396	135.011749802608	2249.8682028572	812.319805497525	209.065726909879	1585.3146593786	1084.78470320053	139.954626296559	1799.30630867313
540.80300908725	141.898917788843	890.213630119399	839.670558547322	220.935497326854	1104.80710648328	599.59117920734	149.357039244078	890.8492634596	1236.62479801416	157.971570525793	1560.7236294853	1177.24717401598	138.539485956833	2122.25344207773	1060.03415392904	146.522108450316	1548.65601937306	480.576809110132	134.715172349502	732.757486345994	1153.00251804268	167.025627901552	1613.15058877337	633.798751464156	147.989577420289	907.051927686303	965.001053888944	182.037644903046	1242.33461073018	1173.79429705883	183.15462082999	1930.37965324517	1274.64083911753	146.959820723185	1613.31432845324	975.562680918964	171.940147579105	1948.78896407732	1242.86497631402	135.004650252251	2250.15538523471	812.151407920908	208.919270995282	1586.13716193556	1085.0514382952	139.927093271276	1800.99980571223
540.648972051997	141.886102621199	890.18446554245	839.732480453569	220.840039344837	1105.44379336701	599.575188533112	149.335043239978	890.954822905143	1236.46142979169	157.947526746202	1561.36188516586	1176.85396998442	138.496043067732	2121.97414537141	1059.7316143361	146.46454936312	1548.60199528086	480.348654266907	134.715696668649	732.758086381861	1152.47172123746	166.965798198333	1612.16546694513	633.773343827919	147.976220778044	907.079346291905	964.6981962241	181.960349779933	1241.95962462239	1173.3117402611	183.089332408549	1929.33872423977	1274.41479777524	146.951393949931	1612.87032567607	975.090016577945	171.874340400738	1948.2620491034	1242.5423289775	135.001327222897	2250.10337279805	811.864226026739	208.732702949082	1586.52105616735	1085.22753079627	139.893817103856	1802.26703443399
540.459884655188	141.881540282327	890.117164880006	839.64017248304	220.737629910783	1105.90688024567	599.519514772942	149.317910076729	891.005975426689	1236.22036949401	157.915063851928	1561.91725417367	1176.36286953645	138.457719932619	2121.4607506432	1059.438572938	146.417794647578	1548.55183652516	480.01213663233	134.707451011214	732.583060372859	1151.91643491437	166.896792399797	1611.23475058891	633.683026726803	147.95927654881	906.972919641726	964.318546402371	181.86259059813	1241.46760770679	1172.60490341645	183.014577971689	1927.96224300065	1274.13500686576	146.924869599456	1612.36191453387	974.55167802465	171.799315893647	1947.38404764958	1242.22617093679	135	2249.77438154006	811.492691383325	208.511839359577	1586.52395982925	1085.34284963313	139.858194337653	1803.12349976068
540.255726533818	141.884775398303	890.055923976026	839.42713424839	220.632136587561	1106.25384560603	599.439186622627	149.305613596437	891.048414130295	1235.93005216681	157.875545651725	1562.4541302484	1175.82128082441	138.422074448741	2120.81237004386	1059.18539450465	146.380394225742	1548.56060507924	479.593089534155	134.69126160023	732.276830402649	1151.37288862	166.822815498863	1610.41654815848	633.551777012845	147.938843073884	906.7726759055	963.90867632613	181.752011441509	1240.919467532	1171.74856788172	182.9270705536	1926.38079041979	1273.82653985083	146.880392344938	1611.8207551911	973.989728899473	171.713850688827	1946.25095405035	1241.95741318797	135	2249.29363623979	811.077198172745	208.267886121038	1586.25362290655	1085.43277196052	139.824945695083	1803.65275014489
540.057473277288	141.894267536593	890.059892299663	839.137811575802	220.527824067602	1106.56554638147	599.347669077698	149.295646256637	891.13637025008	1235.62214394385	157.833110610476	1563.05760079801	1175.27836969846	138.388017270626	2120.18269956715	1059.00331221294	146.350639566465	1548.71939735082	479.120732637561	134.670421040466	731.904895263991	1150.88939663765	166.748257638181	1609.81791922968	633.408211071516	147.917596325812	906.534656419074	963.528409717382	181.640132586841	1240.41730870008	1170.83472701211	182.828009925489	1924.76160746198	1273.53408652079	146.820910375131	1611.32163419356	973.44253939686	171.620386784953	1944.99984995612	1241.77015587422	135	2248.82848317651	810.65619176392	208.015072831962	1585.84597487852	1085.53047382459	139.799136608139	1803.98808675403
539.889360830007	141.905846523203	890.190193701612	838.823605403017	220.430609419313	1106.92821919763	599.259824546164	149.288020708445	891.319640236115	1235.33574790977	157.791949144403	1563.8122714393	1174.77795853629	138.355048244795	2119.74459319849	1058.91757168518	146.326074596214	1549.12867766175	478.625054192658	134.650143482056	731.543268599221	1150.51491740096	166.678837513898	1609.56360183104	633.28353863806	147.898917788843	906.3237005918	963.240269526675	181.540801838874	1240.07748271973	1169.95700902942	182.720685681549	1923.280240858	1273.31158731258	146.750684218612	1610.96043790112	972.936001697692	171.524501038249	1943.77508565367	1241.68371225421	135	2248.54905047529	810.258397931091	207.768970126423	1585.43319411459	1085.65500482288	139.785020410043	1804.2755659887
539.76908139453	141.915063851928	890.497046464037	838.527309328593	220.345665405154	1107.41415677775	599.18587007334	149.28291215737	891.634373697535	1235.09948048284	157.756678849214	1564.78351333279	1174.35763703116	138.324615098045	2119.65203821466	1058.94968971739	146.304158905443	1549.87034514763	478.136999617259	134.636803995266	731.268201755665	1150.29611147181	166.621186988929	1609.75820386269	633.205554579077	147.886102621199	906.199389132497	963.096632913403	181.464282164233	1239.9993679902	1169.19533765425	182.611703112635	1922.08408551924	1273.20934328733	146.677162557589	1610.82405779363	972.482789411651	171.43260522577	1942.70669925717	1241.70089824493	135	2248.59783816611	809.899966471998	207.542240733858	1585.12406324792	1085.81039382986	139.785020410043	1804.6466693061
539.709363277417	141.91855309762	891.004269951845	838.280424263547	220.27824664955	1108.0594094069	599.131802377811	149.281766119866	892.09208667169	1234.93152360447	157.731481791209	1565.9911589166	1174.04085727828	138.297897075954	2119.99193961642	1059.10533723375	146.282824243992	1550.97444722372	477.682787023942	134.63601824697	731.134736767099	1150.26440242432	166.580838796002	1610.44806552689	633.195518196839	147.881540282327	906.202088997235	963.134181241237	181.416052077848	1240.23543514536	1168.60704060878	182.507904542427	1921.2585565823	1273.26573018107	146.606355025466	1610.95943517922	972.079171282718	171.352764955512	1941.87463115035	1241.80047379645	135	2249.04434670127	809.578988078579	207.345398206268	1584.97434316582	1085.97751810839	139.799136608139	1805.1764644189
539.713945412995	141.913736629031	891.704975187175	838.093010564748	220.231656354266	1108.85534135015	599.096324838585	149.286037639086	892.678332423396	1234.8310427532	157.719301145054	1567.40510939906	1173.83784345588	138.277203780994	2120.7705438607	1059.37734466828	146.260803726135	1552.41120892463	477.28352338249	134.648833414614	731.16918902986	1150.43318392423	166.559050573328	1611.61164409467	633.264274478702	147.886102621199	906.349026016649	963.366229469613	181.394007163627	1240.78755848708	1168.21807302337	182.415253911699	1920.82481850811	1273.50061703351	146.543977741366	1611.3719341243	971.70724900803	171.290276068898	1941.3017999885	1241.94259131499	135	2249.87731775216	809.279630361424	207.18489337673	1584.98526963002	1086.11936157241	139.824945695083	1805.87112511508
539.773272507319	141.899869048056	892.55752137907	837.951203119982	220.207091384014	1109.74437143854	599.069650419801	149.295882317962	893.35020955817	1234.77070559975	157.719968049926	1568.93823906609	1173.74580058077	138.264127114628	2121.9108708055	1059.74440550724	146.237693446878	1554.09252332532	476.951590583265	134.671532815854	731.362436893632	1150.79396821197	166.55483359836	1613.16049160592	633.411759058943	147.898917788843	906.633728690482	963.785156892063	181.391363017655	1241.61563666841	1168.02320531326	182.338622564971	1920.7448256627	1273.91150018188	146.492461121435	1612.03149889314	971.346360944279	171.2486005835	1940.95863819077	1242.08189891807	135	2251.01332728542	808.978128809065	207.0612523016	1585.10861343114	1086.1924036983	139.858194337653	1806.67252143206
539.868697589833	141.876540258837	893.492783047679	837.820153590963	220.200684106353	1110.63076050951	599.033396173412	149.308721244315	894.044104445457	1234.70650375229	157.730701176423	1570.46357725508	1173.74977184591	138.258074811288	2123.26669041418	1060.17472544011	146.212701107848	1555.88620615398	476.690091721986	134.69823368249	731.673422419783	1151.31440630169	166.562575605866	1614.95362608793	633.626049999547	147.917596325812	907.030528974055	964.363052580978	181.398725029298	1242.65117116732	1167.9912675585	182.281063477775	1920.93648882309	1274.47615940431	146.452519943772	1612.88230137212	970.970387840859	171.227524858941	1940.78191176615	1242.16714249991	135	2252.32986641781	808.644186720968	206.970852628132	1585.26632156245	1086.15000429228	139.893817103856	1807.48289476413
539.975295143797	141.844596121488	894.429107616105	837.652770062055	220.204717526421	1111.40325531916	598.965717929845	149.319942128118	894.688488743859	1234.58541114391	157.746575440962	1571.84259043345	1173.8258228604	138.258500847661	2124.65266228286	1060.62895737792	146.185594118937	1557.64183977717	476.495291615181	134.717702774928	732.041417712921	1151.94065624284	166.573346056932	1616.8162305078	633.886043269774	147.938843073884	907.504918220733	965.051942435431	181.406032427117	1243.81579086602	1168.06663207921	182.241413119765	1921.30137954561	1275.1474210973	146.422070973972	1613.86000439642	970.559694453738	171.223258077322	1940.6978584335	1242.15748905043	135	2253.69568903063	808.252329532054	206.904895263991	1585.37490270555	1085.95486839595	139.927093271276	1808.19038671758
540.065732472101	141.805287806573	895.283725442954	837.401349709412	220.207809281676	1111.95490157751	598.845564062581	149.325291547692	895.214325381415	1234.36101285734	157.76107510969	1572.94811642565	1173.94749522914	138.262130949032	2125.88294381345	1061.07147862352	146.155948052887	1559.21836467939	476.358332646048	134.721456578256	732.403773893316	1152.60826537676	166.577130859879	1618.56319209405	634.166541656111	147.95927654881	908.01893291402	965.790689485302	181.405223961145	1245.02922501364	1168.18816246798	182.216560804629	1921.74139875361	1275.86732083203	146.396990721564	1614.89727848585	970.099205410358	171.229373538537	1940.65211588624	1242.02296813426	135	2255.01027130139	807.785267353814	206.851900819532	1585.37922021034	1085.58597185917	139.954626296559	1808.70831227808
540.119655388523	141.760443021937	895.992642005835	837.030660965609	220.198579535098	1112.21082694609	598.661157969604	149.321162486102	895.572327302226	1234.00914959033	157.769126694256	1573.6997174085	1174.08856729048	138.266667095459	2126.80506980489	1061.47235256297	146.124861433113	1560.50909403213	476.268173841078	134.704384880924	732.706387304899	1153.24930356088	166.565381057271	1620.02777957158	634.440034026213	147.976220778044	908.535734964182	966.509700880561	181.392863963839	1246.21060334439	1168.29104130411	182.201213163101	1922.16946770991	1276.56443193662	146.372398226462	1615.92306332217	969.579496880211	171.238351727076	1940.60726431822	1241.74493268186	135	2256.20099608023	807.239205562346	206.801964777219	1585.25748346257	1085.03645014294	139.974893555147	1808.97885162376
540.123703847217	141.714633737349	896.519601839073	836.526384727869	220.166527200431	1112.14460634125	598.410285660678	149.305263825198	895.741934971162	1233.53146464469	157.76860793733	1574.0781235827	1174.22636373933	138.269207781713	2127.33607976846	1061.81472855219	146.094153476796	1561.46537820944	476.213854607458	134.665506496619	732.921423487566	1153.80561979589	166.533166780117	1621.09162577982	634.6811683987	147.988250197392	909.022540646684	967.140745712002	181.370831467471	1247.28715505101	1168.32202652809	182.189463360493	1922.52074457255	1277.17374226268	146.344084190483	1616.87279295263	968.996281127002	171.243321150786	1940.55507514136	1241.31496925271	135	2257.238605711	806.624241708771	206.747365996432	1585.03602887299	1084.31364202981	139.988250197392	1808.98918552726
540.075107376082	141.67295351435	896.865345702423	835.897570448773	220.105370274314	1111.78769129751	598.102209627392	149.277730799914	895.738988885348	1232.95497066427	157.760958700002	1574.13780967331	1174.34116000472	138.267997793125	2127.46017049039	1062.09388664412	146.067134401264	1562.09672767983	476.185072662238	134.61117419383	733.043795726325	1154.23249424897	166.480345654965	1621.69138315811	634.869076619502	147.995349747749	909.454086966142	967.628112061415	181.343555133735	1248.20001973949	1168.24453057716	182.177708750711	1922.7599957319	1277.64224971435	146.311001764252	1617.6963857567	968.354971451076	171.239544560209	1940.50960125219	1240.74362161327	135	2258.13281831772	805.967283888946	206.684877040245	1584.78045957515	1083.44479945415	139.994022524852	1808.76847631935
539.979878234427	141.641459809738	897.066514392755	835.175658096755	220.015622706501	1111.22711269789	597.752869225122	149.241413257707	895.611635719187	1232.32500937975	157.750706936288	1573.99753649423	1174.41590503302	138.263007739192	2127.23320046264	1062.31438954458	146.046700926337	1562.46665980087	476.172348107746	134.550188153284	733.092041305493	1154.50243865072	166.411446721342	1621.82712784453	634.991146245931	147.998672777103	909.820636184153	967.935636102131	181.31702604566	1248.91370359302	1168.0414142381	182.163833421114	1922.88623875049	1277.93679230152	146.273858033964	1618.36840722287	967.671772160015	171.22419218108	1940.48786143366	1240.06263766247	135	2258.9170680305	805.307422676472	206.614502785405	1584.57209578333	1082.47592918465	139.992695301956	1808.37429138426
539.85103153632	141.62583724118	897.178718864267	834.40649452266	219.901986826423	1110.58123306964	597.382715300703	149.199885940204	895.42501860712	1231.69657285816	157.741642513059	1573.80815630266	1174.43808652604	138.255158866772	2126.76141985254	1062.49002802332	146.035529024564	1562.6742979087	476.16821661242	134.491916172065	733.100286093465	1154.60514768306	166.333260022122	1621.55061795321	635.045962156455	148	910.13215865842	968.053397973864	181.296332750699	1249.42437046761	1167.71736905206	182.149426403365	1922.93754604325	1278.05339527409	146.238067372735	1618.90141167504	966.971555473808	171.198955498783	1940.50103917602	1239.32325797157	135	2259.6388897661	804.687263552906	206.53879638391	1584.48696752033	1081.46664484859	139.983599945141	1807.88030783098
539.703728649184	141.62996630277	897.268264044863	833.641179541683	219.775697187865	1109.98252527023	597.011495159518	149.159960655163	895.252848523876	1231.12232103818	157.737886206423	1573.7293983377	1174.4032667992	138.248142219034	2126.17618544192	1062.63842941667	146.035529024564	1562.83059549808	476.16746179417	134.443302615047	733.109642215146	1154.54271380361	166.253966033639	1620.94030836393	635.042525588758	148	910.423101981523	967.993660821771	181.283067150318	1249.76068991726	1167.29401639254	182.136611235721	1922.98709151709	1278.00965582962	146.20815674905	1619.34662851362	966.292658360058	171.166889389524	1940.55426911776	1238.59881572689	135	2260.35699657124	804.151486034033	206.46120361609	1584.5833674726	1080.49221748391	139.963143752539	1807.37193116981
539.555213594223	141.654810889762	897.398508192687	832.93097782283	219.648833414614	1109.55157511113	596.659204242948	149.126986822159	895.16276601566	1230.65239216027	157.739493046059	1573.90133758899	1174.31767517443	138.244207230313	2125.6151620029	1062.78045639248	146.045373703441	1563.03969228524	476.16821661242	134.407547691038	733.162254585215	1154.33441897451	166.180416847766	1620.09598646724	634.999650228761	148	910.739775687454	967.789904161739	181.275185256861	1249.9715802021	1166.80738740301	182.129104600526	1923.11756848725	1277.84535417729	146.190411712416	1619.77558752018	965.676599838658	171.134876927986	1940.64525046277	1237.96817172685	135	2261.13120581752	803.736646503994	206.386824437492	1584.89083682649	1079.62939567291	139.930847074603	1806.93652133115
539.422442200055	141.697966483604	897.621945514287	832.32000126974	219.533181097855	1109.3811140339	596.343737518905	149.105226124336	895.208227921514	1230.3284619707	157.743513910331	1574.42556459933	1174.20384181236	138.24501326255	2125.20295633043	1062.94088265302	146.06381137191	1563.38676422495	476.172348107746	134.384777417049	733.292243078867	1154.0179569992	166.118280432165	1619.12833517768	634.942811363892	148	911.135361726895	967.49471632548	181.267997793125	1250.12779951975	1166.3034196296	182.129618550277	1923.41241442025	1277.6177838334	146.189717352267	1620.27704823905	965.165559453515	171.108715370028	1940.77872590239	1237.50755628263	135	2262.0258181214	803.467981351449	206.321100434902	1585.41568548159	1078.94832642379	139.886369820086	1806.66311639165
539.319958227376	141.754029965642	897.977138028809	831.840161746332	219.436373880687	1109.52378166717	596.078900303129	149.096685950681	895.42607024765	1230.18012573357	157.746033966361	1575.35679466618	1174.09822578337	138.251070719346	2125.04401698478	1063.14694350553	146.087053926439	1563.93431993854	476.185072662238	134.373561270847	733.525309766165	1153.64931176102	166.07180737119	1618.16444522015	634.899005923418	148	911.654505339883	967.16961061166	181.257030264044	1250.30998058073	1165.8292591903	182.139527180237	1923.93226389303	1277.39089635879	146.206661581501	1620.93529747584	964.796782509018	171.093196704988	1940.98574290982	1237.2765366313	134.998672777103	2263.12196485326	803.358532423885	206.270361281323	1586.15647964786	1078.50406975224	139.831332954842	1806.65038982621
539.262386258047	141.815715948506	898.487785172358	831.514089257518	219.360650323738	1109.99010003855	595.877689247429	149.098803729047	895.829619094595	1230.22916918262	157.742809219781	1576.69940472891	1174.04098528023	138.26104286632	2125.20727232694	1063.42323022339	146.112832013765	1564.71851660943	476.212527384561	134.373208799834	733.872327883576	1153.29835367265	166.041506499712	1617.34348325324	634.89470789609	148	912.3286093119	966.886653783322	181.238758811913	1250.60869727301	1165.43317950148	182.160390457677	1924.71272759089	1277.2342204783	146.239818835924	1621.82566544848	964.596409104614	171.089586400323	1941.31498955642	1237.31347327807	134.995349747749	2264.49762072458	803.408680703171	206.24086894539	1587.10124959523	1078.32961703729	139.769813188317	1806.98865635051
539.264793232088	141.873013177841	899.164708639387	831.352149951352	219.303187016006	1110.75160517902	595.750849163314	149.107059686304	896.413890031012	1230.48881527952	157.729452577536	1578.41423909983	1174.07327661714	138.273430318903	2125.72184702625	1063.79230661496	146.137676600757	1565.74734313855	476.26219636593	134.384258660124	734.332616362909	1153.04442291281	166.028149857467	1616.80316377886	634.954050891962	148	913.164966652365	966.716540623071	181.21261319447	1251.10893806243	1165.1555776851	182.190149854555	1925.74709021279	1277.20888763868	146.284582948091	1622.9906381555	964.576996733886	171.09680792259	1941.83691373003	1237.62722708583	134.988250197392	2266.23282891224	803.604955254202	206.237633829414	1588.23647981761	1078.43224083789	139.707463429068	1807.75891491614
539.340497061904	141.919097271995	900.004862161956	831.353876659039	219.259140535463	1111.74928109272	595.705812893463	149.115224601697	897.153796474394	1230.9590994611	157.705310515172	1580.42426074188	1174.22489468264	138.28722023843	2126.56965441814	1064.26831747537	146.159183168863	1566.99832533353	476.339278145395	134.408302509288	734.892141799478	1152.96561358497	166.031083920001	1616.66028412758	635.09714191862	148	914.150755178077	966.718746037125	181.179704557167	1251.87526041758	1165.02643032946	182.22499034723	1926.99138028176	1277.35811634361	146.333172108744	1624.43169775592	964.732234816376	171.110382715658	1942.62329564006	1238.19847894619	134.976220778044	2268.38527315063	803.919280526647	206.26219636593	1589.54172838374	1078.79263924891	139.649710204774	1809.01173898963
539.501807298501	141.948070920577	900.992480605472	831.509627846182	219.224568144765	1112.90207142144	595.749104555757	149.11978694057	898.010923881005	1231.63270777195	157.671934404504	1582.62318698397	1174.50582403669	138.30123040513	2127.6950799558	1064.85340573486	146.175054304917	1568.42351351615	476.446480417425	134.445870826151	735.52801906709	1153.12497756996	166.046700926338	1616.99535989524	635.340349531062	148	915.25745136547	966.931644730701	181.143132885243	1252.93847061621	1165.06148901105	182.258785202002	1928.37495904796	1277.70093963565	146.376005610156	1626.10663921145	965.034251170198	171.126974404306	1943.71563658161	1238.97455904906	134.95927654881	2270.95638545497	804.308904478166	206.314171700542	1590.97648865265	1079.36138348656	139.600730796327	1810.73908818733
539.753166189688	141.958493500288	902.099980341437	831.796790467767	219.19875905782	1114.12235082344	595.881472624064	149.118547631051	898.941243923007	1232.4835229984	157.631982927018	1584.89206991905	1174.90963759916	138.316315792888	2129.02743506705	1065.54039811974	146.183485885345	1569.96533979622	476.585484241078	134.494884227096	736.217841083322	1153.5675044191	166.072906728724	1617.85347978221	635.692867669676	148	916.447262623456	967.368531236878	181.106182896144	1254.29249813911	1165.2605673194	182.284568096502	1929.81532307938	1278.23040083769	146.404355037072	1627.93784792753	965.441579051864	171.142238939629	1945.11698093814	1239.88525828191	134.938843073884	2273.88866584297	804.724137942426	206.389356911376	1592.4838817816	1080.07074758439	139.563265178789	1812.86893435882
540.090758955272	141.953299073663	903.290757726592	832.183938642748	219.184639384955	1115.32166404682	596.09925648645	149.112832013765	899.900776372353	1233.47191477469	157.590103068929	1587.10862311649	1175.40788689642	138.331719455576	2130.48545303067	1066.30732817979	146.183485885345	1571.55970110766	476.752292958133	134.552147463934	736.936373850976	1154.30652957647	166.107510119041	1619.23240463622	636.155050069828	148	917.677396693235	968.017359552193	181.074233951621	1255.896584727	1165.60689593739	182.298710487042	1931.23121730494	1278.91744721928	146.412607865843	1629.83042819382	965.902308742937	171.15462082999	1946.78120915651	1240.84524114322	134.917596325812	2277.0598558429	805.110753283888	206.481493592353	1593.98650844665	1080.838757329	139.536766518922	1815.2634993632
540.501343559381	141.937515850987	904.523474111941	832.62971000713	219.188412847046	1116.42529568688	596.391560520452	149.107510119041	900.852128777557	1234.54609838218	157.551515376181	1589.1658166874	1175.95989643991	138.346523188767	2132.00121062474	1067.12617089713	146.175054304917	1573.15459703532	476.941095931028	134.608636982345	737.664146793125	1155.32492914262	166.147783137494	1621.0955774407	636.712472963122	148	918.911557539098	968.84160373534	181.050023955691	1257.69954063178	1166.06673886482	182.298164274841	1932.57621808526	1279.71575015768	146.399246485997	1631.70631318586	966.366123428048	171.162239137273	1948.6202053472	1241.77637254329	134.898917788843	2280.30538155261	805.424084196556	206.58433630369	1595.39722181036	1081.58479621161	139.517549635838	1817.7363842533
540.960000245907	141.917596325812	905.757454815522	833.086422638575	219.216293605742	1117.37499028413	596.740463879299	149.107857852454	901.768165273968	1235.64199314114	157.518964772113	1590.98226812566	1176.51938853883	138.360665579308	2133.53112679519	1067.96562981607	146.159183168863	1574.72223368759	477.143654075904	134.656447566038	738.386713368829	1156.57529697064	166.192781582672	1623.38148244174	637.33715276698	148	920.1238551451	969.790407532291	181.036856247461	1259.65327169637	1166.59283865267	182.284830350272	1933.84408246399	1280.57145758087	146.368561247357	1633.52262854672	966.79755011272	171.164807348377	1950.52161151315	1242.62485819994	134.8861026212	2283.44901332453	805.635524081882	206.690854515393	1596.62864523757	1082.24724552895	139.501155093575	1820.08394838508
541.438220511825	141.898917788843	906.955555489412	833.508413344059	219.271164254647	1118.13323262335	597.12478696406	149.119607655062	902.630022367799	1236.69906749986	157.494553462404	1592.50812206859	1177.04424550685	138.371098528415	2135.04558064243	1068.79742286582	146.137676600757	1576.24986053924	477.348646529356	134.689008743086	739.09232588103	1157.98699501191	166.242369891573	1625.99940337268	637.991355341961	148	921.29752902056	970.80699700091	181.036856247461	1261.72287817806	1167.13289229081	182.262538033869	1935.06290353602	1281.43307584484	146.329672435133	1635.27620003125	967.177339000564	171.162239137273	1952.36626221349	1243.36523679786	134.881540282327	2286.33789642841	805.734591397104	206.795259755903	1597.60335203486	1082.78737086407	139.483327154322	1822.11966987084
541.909092076944	141.886102621199	908.092285776072	833.857751312593	219.351979207216	1118.68866258156	597.523702872099	149.146362172959	903.430902778822	1237.66768622691	157.478850221377	1593.73573995759	1177.50250662684	138.37615579593	2136.53533368856	1069.60151259628	146.112832013765	1577.74706366202	477.545344297787	134.70102310333	739.773062804815	1159.47760821118	166.297209540859	1628.84581007247	638.631625683042	148.001327222897	922.424400793308	971.833327605831	181.051351178588	1263.88445981986	1167.63299780168	182.23728636204	1936.28165296192	1282.25521696963	146.294409868089	1636.99296144989	967.506912131837	171.15462082999	1954.05078439617	1244.00715291561	134.886102621199	2288.87110752486	805.732400111414	206.893469370443	1598.26731074631	1083.19696064382	139.462893679395	1823.7047861953
542.349323512854	141.881540282327	909.148847122285	834.109733210506	219.452519943772	1119.05161389757	597.916442826201	149.189084489519	904.171145632373	1238.51292340711	157.47119848074	1594.68837222027	1177.87939463817	138.374945807342	2137.99529210123	1070.37201668992	146.087053926439	1579.23152980091	477.724988466426	134.693560712563	740.421795888198	1160.96886391633	166.358366466975	1631.80814529846	639.220642075622	148.004650252251	923.497815371271	972.823475532688	181.080211426769	1266.11558201634	1168.05214875375	182.214018030922	1937.54395137503	1283.00871084339	146.273326277442	1638.7085558308	967.804920276455	171.142238939629	1955.50882476659	1244.58701400282	134.898917788843	2291.01780328412	805.655829978808	206.982272722244	1598.60417213272	1083.49563460265	139.442530641343	1824.77422917598
542.746734708569	141.8861026212	910.119400011138	834.258747791432	219.563880111087	1119.2533604634	598.288080721817	149.24553445321	904.857768074698	1239.22353507588	157.471071012642	1595.41877885516	1178.17363336921	138.367439172147	2139.42381399647	1071.11170123183	146.062484149013	1580.72544352769	477.879609296416	134.671934404504	741.031220706291	1162.39522700729	166.426653943068	1634.78163677814	639.729936357627	148.011749802608	924.507528660774	973.745511685022	181.122582951003	1268.38586293973	1168.36474745373	182.197361077	1938.86698430033	1283.67917544991	146.273613552754	1640.44252359609	968.096361286573	171.125647181409	1956.71176545936	1245.15282651242	134.917596325812	2292.80918556919	805.539860608621	207.061701100491	1598.63355975359	1083.7198791603	139.42821722729	1825.3346852698
543.097671047228	141.898917788843	911.007124948741	834.317850626033	219.674454460534	1119.3409163234	598.627250102414	149.308721244315	905.50097563111	1239.80652461985	157.476061066576	1595.99641308474	1178.39627467999	138.356347942842	2140.82352482321	1071.8325920717	146.04072345119	1582.25086510164	478.004443204679	134.643732729626	741.596259658013	1163.71636602949	166.50192706728	1637.68675876131	640.144049167622	148.023779221956	925.436761361725	974.583486204423	181.177334686911	1270.65448926377	1168.56388067376	182.189364106259	1940.2343365035	1284.26650426525	146.295894735816	1642.19196793534	968.409563060547	171.105732463407	1957.67331077576	1245.75339490373	134.938843073884	2294.32421155859	805.422564369331	207.131810797696	1598.41132906808	1083.91420939417	139.427519392372	1825.45818315934
543.407319258196	141.917596325812	911.81904273383	834.31340735532	219.774209448794	1119.36764796493	598.926611414138	149.371617215767	906.109583094325	1240.28347113549	157.485247395681	1596.49286252127	1178.56660929197	138.346792287538	2142.19146962093	1072.54988242076	146.023779221956	1583.82252525498	478.096872743137	134.618532543135	742.111669620695	1164.91815925935	166.58257580351	1640.4712491639	640.459502892069	148.04072345119	926.263993969435	975.336853734909	181.239556978063	1272.86856130284	1168.66018699842	182.190149854555	1941.59800803696	1284.78069000636	146.335037677756	1643.922587275	968.762623139243	171.083730897085	1958.44602037836	1246.41802230987	134.95927654881	2295.6729279857	805.333602800688	207.195235687953	1598.02438500634	1084.11598402051	139.446132684012	1825.26750414831
543.683618724179	141.938843073884	912.569336042702	834.28233845848	219.856613122982	1119.38800534629	599.182197995971	149.426894949509	906.690947104269	1240.6832839939	157.496047874906	1596.97437144894	1178.70983533715	138.344674509172	2143.52926770102	1073.27984996479	146.011749802608	1585.44710825839	478.157856083908	134.603988629979	742.575936446105	1166.01654729886	166.665412754981	1643.11727828623	640.683724596832	148.061156926116	926.968299055445	976.015734520042	181.304070992064	1274.97290897079	1168.67835644692	182.196016698648	1942.89686492822	1285.23615982863	146.379502583993	1645.58268893477	969.162398474472	171.061156926116	1959.09258375155	1247.15617095589	134.976220778044	2296.9533433297	805.293051241592	207.255158866772	1597.56671157629	1084.35299632803	139.486833417526	1824.89873809726
543.933627602884	141.95927654881	913.269274640086	834.25867754783	219.917770049098	1119.44647405531	599.392138228915	149.468316235617	907.244517966473	1241.03250580098	157.506499705975	1597.48239738772	1178.85077372254	138.354514380874	2144.83502157593	1074.03373258897	146.004650252251	1587.11654155191	478.189873145104	134.602573697288	742.988988698238	1167.04289290427	166.746033966361	1645.62546261048	640.829222011307	148.082403674188	927.533730289208	976.633149142925	181.363190442512	1276.91016360814	1168.64715872434	182.202278528136	1944.06545862919	1285.6444918607	146.417258118094	1647.1063874923	969.597291357285	171.04072345119	1959.67081161456	1247.94609200708	134.988250197392	2298.22863714109	805.302902395627	207.313259824478	1597.12181309799	1084.6303882392	139.548627993617	1824.47251564454
544.158562502772	141.976220778044	913.92527637478	834.265452414132	219.958493500288	1119.5693266992	599.553158736519	149.492347549463	907.761204854515	1241.34194153383	157.513397856572	1598.0312950582	1179.01250895448	138.377874169712	2146.09308564791	1074.81505440188	146.001327222897	1588.79938625917	478.199536168965	134.613030335531	743.350526912748	1168.03051810756	166.819583152234	1647.99293973884	640.90995635705	148.101082211157	927.955799930775	977.198020149995	181.41021527791	1278.63164030234	1168.59405344843	182.20349164521	1945.05888602638	1286.01040276932	146.437175964581	1648.43485783341	970.040453982649	171.023779221956	1960.21744709518	1248.74271083328	134.995349747749	2299.51287482545	805.350832158357	207.369766498344	1596.74839550627	1084.93478693614	139.625059754879	1824.07530349683
544.353513974327	141.988250197392	914.533617167574	834.309206746548	219.982272722244	1119.75705606581	599.663095435991	149.498617107095	908.220551746231	1241.60866895218	157.515017161954	1598.59616430684	1179.20822357321	138.413123715479	2147.26541548286	1075.61352470318	146	1590.43424410966	478.192856051725	134.630666778939	743.655447822339	1168.99798391485	166.881719567835	1650.19240198189	640.937912191273	148.113897378801	928.232274127773	977.712474886075	181.439622203775	1280.08749242688	1168.538845228	182.196301052989	1945.83806739468	1286.33176705109	146.433308401713	1649.50925083264	970.454473136576	171.011749802608	1960.73061969265	1249.48320710537	134.998672777103	2300.75396368153	805.415379479912	207.423042863408	1596.46639152362	1085.23730854011	139.708656262201	1823.73792631138
544.507515736108	141.995349747749	915.08039376102	834.375988503494	219.992695301956	1119.98574178241	599.716530268771	149.488051875625	908.594506040485	1241.80960471501	157.508508068228	1599.12283521317	1179.43788633179	138.456372029873	2148.29306670424	1076.4030208464	146.001327222897	1591.93686333616	478.175224415492	134.64969778692	743.892480192604	1169.93571593216	166.929519851706	1652.16549546526	640.919192740141	148.118459717673	928.36677788495	978.173086115972	181.449462075477	1281.24576907981	1168.49145202896	182.179616643789	1946.39066112757	1286.60367837983	146.406346036355	1650.29809494071	970.798680485036	171.004650252251	1961.17673642508	1250.10164766046	135	2301.85088079597	805.470113953994	207.470179370893	1596.25799603836	1085.50165255435	139.790609503653	1823.43999073774
544.607095101197	141.997345554206	915.544837370435	834.434139992881	219.992695301956	1120.2094577587	599.708194467808	149.464443469666	908.851495276903	1241.91059262678	157.493417118248	1599.5358872198	1179.68679878253	138.502723184971	2149.096727426	1077.14455224924	146.004650252251	1593.20652776392	478.148285321608	134.664962322244	744.043309521906	1170.80601331282	166.961816529642	1653.8248798027	640.853046801124	148.113897378801	928.36506373306	978.570706491553	181.439969937187	1282.09781881489	1168.44917592506	182.15462082999	1946.7281290158	1286.81992751995	146.361885937292	1650.80079088421	971.036919196948	171.001327222897	1961.49674814853	1250.53819578761	135	2302.67128272733	805.491758508168	207.508078265714	1596.07408482204	1085.69287116847	139.86259059813	1823.12110362165
544.640482920757	141.995349747749	915.903135750415	834.446325976522	219.982272722244	1120.3748150113	599.634072943321	149.432255454531	908.961805098392	1241.87608087821	157.470960381588	1599.75685752169	1179.92762625557	138.546148026158	2149.60082523203	1077.7905981212	146.011749802608	1594.1515556598	478.107826428053	134.673577670374	744.087080870934	1171.54736012539	166.977622469994	1655.07904487067	640.734203895265	148.101082211157	928.233287345523	978.894760476181	181.415315962898	1282.6584457571	1168.40180745619	182.124861433113	1946.87847168016	1286.97723512949	146.309145484607	1651.04623449415	971.141578138463	171	1961.62315008165	1250.75204558311	135	2303.08240823054	805.462069440502	207.534123413984	1595.84783590547	1085.78525989171	139.919097271995	1822.70432752656
544.60232294307	141.988250197392	916.140473137901	834.377941713539	219.958493500288	1120.4374637241	599.493861564815	149.396832253847	908.910647266743	1241.68155890717	157.443162729096	1599.72967746829	1180.1241206254	138.582226032271	2149.74621665841	1078.292490706	146.023779221956	1594.70620206789	478.04649868594	134.67513852086	744.006246596987	1172.0910742255	166.977622469994	1655.8517026881	640.556077897837	148.082403674188	927.978878440202	979.134999416486	181.382581270079	1282.967844685	1168.33293582622	182.094153476796	1946.88285989584	1287.07553433609	146.257190780219	1651.08875123822	971.103055796971	171	1961.50585522402	1250.72738052278	135	2302.99090916949	805.373450402579	207.547368384141	1595.51848893082	1085.77086924318	139.958493500288	1822.12555995407
544.496637916486	141.976220778044	916.255276983001	834.212947399402	219.919097271995	1120.37738990854	599.295780086846	149.362928805848	908.701420836298	1241.32733767295	157.414603893496	1599.43672813671	1180.24259409772	138.60785597165	2149.51836357405	1078.61181622932	146.04072345119	1594.85256616861	477.954110446924	134.669367872088	743.795253462947	1172.37967072467	166.961816529642	1656.11083356518	640.315359000279	148.061156926116	927.614577233657	979.280990412988	181.348205385986	1283.07853403901	1168.22467873861	182.065807178367	1946.78906895046	1287.11417885822	146.212713525701	1650.99328553027	970.923882040881	171	1961.12998257227	1250.47387079148	135	2302.36775799742	805.227263790338	207.548695607038	1595.05257171787	1085.65793246798	139.982272722244	1821.35860709199
544.33728583151	141.957949325913	916.26113917335	833.958474434318	219.861263375233	1120.20446238891	599.056592538785	149.335284058851	908.359326070214	1240.84121505673	157.390556985419	1598.90226666658	1180.25504444607	138.620910279479	2148.94856888895	1078.72762436364	146.061156926116	1594.62379009123	477.822189018173	134.657678613562	743.464351436374	1172.38052437716	166.930847074603	1655.87333289593	640.014014619196	148.04072345119	927.15360314521	979.32418167621	181.318353268557	1283.03550172142	1168.06210481963	182.042050674087	1946.63261165208	1287.09167148667	146.178661909808	1650.80896079466	970.621533170526	171	1960.51816497648	1250.02241351025	135	2301.25143811601	805.035593192894	207.540100889131	1594.45506284643	1085.46913310507	139.994022524852	1820.42085477531
544.147435404082	141.934192821633	916.182540281015	833.646294085098	219.785959251402	1119.95721382807	598.800622298752	149.31657765075	907.925076739689	1240.27764492436	157.374678608456	1598.19164403777	1180.15319216524	138.622504563319	2148.12312029198	1078.64349630165	146.082403674188	1594.10378126542	477.649615214567	134.640394223506	743.042263730897	1172.09650002551	166.885042597189	1655.20925442619	639.657740355247	148.023779221956	926.607998650037	979.254861271643	181.296332750699	1282.85991041924	1167.83175839486	182.023779221956	1946.42756561525	1286.99952041959	146.154076655615	1650.55209610588	970.222244622359	171	1959.74049843447	1249.41585198869	135	2299.75002905631	804.820392393201	207.52580554347	1593.78099551269	1085.23540191635	139.998672777103	1819.3791511195
543.952596293628	141.905846523203	916.047631091551	833.324029486286	219.696906459593	1119.68992252967	598.554654312852	149.307504652472	907.444984002207	1239.70223685443	157.368661578589	1597.3906802653	1179.94352071536	138.614502785405	2147.15328679282	1078.38213200525	146.101082211157	1593.4013456645	477.439171771038	134.619959069892	742.567440429534	1171.55900837253	166.828009925489	1654.21214638598	639.255218880144	148.011749802608	925.98884645341	979.063715985356	181.283067150318	1282.54673487981	1167.52469412678	182.011749802608	1946.16895548513	1286.82400243946	146.136186995429	1650.20821837986	969.756027583343	171	1958.89708249064	1248.69869689178	135	2298.01815431358	804.609263463034	207.511685870605	1593.12587620268	1084.98894910931	140	1818.3371954099
543.778340154861	141.875138566887	915.880952534442	833.043134305203	219.599953310026	1119.46270976099	598.342778896004	149.306603465948	906.960113447765	1239.1799005445	157.37162963362	1596.59002929257	1179.65507516056	138.599841637939	2146.15792084212	1077.98725615212	146.113897378801	1592.63030713155	477.202073380449	134.595824248436	742.082328431041	1170.82224395721	166.76271363796	1652.97451360092	638.815889671792	148.004650252251	925.301253375164	978.744224032008	181.275185256861	1282.06248978819	1167.13950436329	182.004650252251	1945.83138553239	1286.55109861547	146.119874853948	1649.73014271823	969.250404064104	171	1958.09761020034	1247.90713049183	135	2296.22156743286	804.430854236155	207.503945591413	1592.60381181459	1084.75386540185	140	1817.40964727031
543.638290762877	141.84537917001	915.700630879054	832.842581822806	219.50192706728	1119.32906821415	598.177618251993	149.309931232903	906.501877620669	1238.75089174066	157.379519739448	1595.87153855858	1179.3266905505	138.583009080793	2145.23060842794	1077.50814063348	146.118459717673	1591.88048744509	476.953311491516	134.570979661445	741.618722682244	1169.9449290661	166.694106786823	1651.56282117617	638.349170023881	148.001327222897	924.552262918159	978.293315527532	181.267997793125	1281.35860477293	1166.68147854958	182.001327222897	1945.38700970934	1286.16838518759	146.102409434054	1649.06107827085	968.727019358787	171	1957.44560928259	1247.06729040078	135	2294.52001559902	804.309260838999	207.507175900214	1592.33022090936	1084.5459000405	140	1816.71112377804
543.535080659366	141.820383356211	915.512597701388	832.743166887706	219.410603659448	1119.32927429818	598.059035485413	149.314324793605	906.083081768312	1238.42451025826	157.388296887365	1595.2915638403	1179.00134801718	138.565201771763	2144.4276688367	1076.99131621553	146.113897378801	1591.20432019107	476.706501095038	134.546502604571	741.194454283909	1168.97020486814	166.626788500392	1649.99522020324	637.866444732689	148	923.750948292943	977.712285863421	181.257030264044	1280.38729295536	1166.16369156924	182	1944.81260429847	1285.67025419588	146.082403674188	1648.15454169995	968.202983577825	171	1957.02273159573	1246.19850704886	135	2293.04651701137	804.260321742125	207.522650320826	1592.39869006878	1084.37492190096	140	1816.34045682517
543.45868356006	141.803698947011	915.313011724801	832.742324176859	219.332850237511	1119.48393345513	597.974483770535	149.315110541901	905.700445487528	1238.18168201946	157.391890036576	1594.87980279049	1178.71177065484	138.547736351868	2143.75307814813	1076.46789749241	146.101082211157	1590.60689584332	476.471638613655	134.524501038249	740.807805024887	1167.91325282763	166.563897266542	1648.24002334864	637.378996244922	148	922.908972666866	977.006889868607	181.238758811913	1279.11170556631	1165.60537586625	182	1944.09504558715	1285.06067522767	146.061156926116	1646.98507987704	967.687536358856	171	1956.86807514469	1245.31286127479	135	2291.88719599776	804.287683647284	207.547829827468	1592.86069956724	1084.24214738984	140	1816.36123606701
543.389744044345	141.797835577687	915.09293925388	832.81956353068	219.273684310677	1119.799303755	597.901389000786	149.311241300346	905.34243455799	1237.98034402862	157.387760974986	1594.64736667717	1178.47921424078	138.531880205346	2143.18179830859	1075.95596015694	146.082403674188	1590.06812645408	476.254136849636	134.506489406152	740.444558058034	1166.76811546295	166.506489406152	1646.24892704434	636.900145757506	148.001327222897	922.042185581293	976.19127459984	181.21261319447	1277.52202433107	1165.03118110673	182	1943.23730323998	1284.35723544783	146.042050674087	1645.56663803398	967.192103305764	171	1956.98318619082	1244.43000535515	135	2291.0828213273	804.389269979628	207.577480631118	1593.7231464348	1084.15331910248	140	1816.80311006514
543.307735037141	141.803698947011	914.84286175433	832.948931536912	219.237545916036	1120.26604499931	597.817557772469	149.302837244767	904.993553329392	1237.78028423255	157.374945807342	1594.58805711291	1178.30864930744	138.516222412941	2142.69099571015	1075.45939342314	146.061156926116	1589.56882422244	476.053085486323	134.4929815371	740.089622447889	1165.51818843958	166.453585308807	1643.99762277452	636.441923640774	148.004650252251	921.171375208246	975.288423020319	181.179704557167	1275.65588346698	1164.46790131356	182	1942.26784282505	1283.5904020962	146.028429474207	1643.96238161983	966.72896325066	171	1957.34313075457	1243.57999116895	135	2290.65126700652	804.557231975097	207.606887556983	1594.95582112165	1084.11989932825	140	1817.66859654197
543.201473506355	141.819056133314	914.568911591382	833.111750319742	219.225884026806	1120.87424615144	597.709028277543	149.291232065711	904.649814319387	1237.5627689817	157.354506770194	1594.70764453516	1178.19409669096	138.5013911549	2142.27834306787	1074.98016075882	146.04072345119	1589.11218571327	475.865857068933	134.484467209607	739.735328124815	1164.16073518092	166.402854090888	1641.52285236083	636.015915801194	148.011749802608	920.321374008775	974.333031590524	181.143132885243	1273.60272029839	1163.9417678967	182	1941.23819147433	1282.80155692217	146.023499605216	1642.28475791824	966.31715143828	171	1957.89364308932	1242.8098209929	135	2290.58055095314	804.784415260566	207.632774237535	1596.48767643017	1084.16123954739	140	1818.92449536492
543.073634077527	141.840728917759	914.298657518115	833.303209856461	219.238417143974	1121.61957306045	597.576105319181	149.280171836026	904.326881844634	1237.34186098368	157.332233405327	1595.02865622173	1178.13102782711	138.487106178634	2141.99079893884	1074.53074375239	146.025106444853	1588.75126445726	475.690427575327	134.47948230913	739.392013208262	1162.73271125663	166.353032154398	1638.96281861642	635.63517774159	148.025106444853	919.525510782083	973.375037857875	181.107510119041	1271.50312229377	1163.48216084395	182.001327222897	1940.22447330052	1282.04736817793	146.029756697104	1640.68418308447	965.980598665535	171	1958.58576965725	1242.17797628652	135	2290.86975804299	805.064013612308	207.655226236595	1598.2355586647	1084.30262473468	140	1820.52531335542
542.942291974698	141.863388764279	914.08825666829	833.538333185251	219.273448249352	1122.50742662781	597.436250567547	149.27266520083	904.06322469249	1237.16672190686	157.31338865202	1595.59775066432	1178.12133361433	138.474643482004	2141.9167910721	1074.14154161459	146.017727277756	1588.57972935761	475.531619595153	134.47839254773	739.087084481377	1161.32385172863	166.304403607849	1636.55107006749	635.314278841664	148.045373703441	918.824868784662	972.479368886494	181.077556980975	1269.5402895715	1163.11791469644	182.004650252251	1939.32827783357	1281.39107755042	146.046700926337	1639.33822963933	965.7473600413	171	1959.38346643389	1241.75163853661	135	2291.52862448319	805.394047811752	207.678489780486	1600.11340768698	1084.57089988948	140	1822.41410498012
542.83954188406	141.88074007835	914.01168240236	833.843677535244	219.326872762363	1123.54780343405	597.320665025325	149.270096989727	903.910942125181	1237.10958240478	157.304298791394	1596.46583684759	1178.17489154738	138.465853868341	2142.16992299128	1073.85594156381	146.021050307109	1588.71598478275	475.399012749338	134.47948230913	738.861554998774	1160.06360791435	166.260729257082	1634.58351638099	635.07394615972	148.074233951621	918.2629169105	971.724469830012	181.058450728946	1267.90970802879	1162.88249759938	182.013077025505	1938.65311793499	1280.90258552762	146.074233951621	1638.41625394472	965.647503478605	171	1960.27691526202	1241.59305270523	135	2292.58314944734	805.772919902505	207.707790482631	1602.04309798419	1084.98662271509	140	1824.52553096405
542.802859567422	141.888819118193	914.148774063032	834.249134837159	219.393112443017	1124.74534423062	597.266329109825	149.272553528743	903.926407606658	1237.24133565522	157.308082553307	1597.6736224795	1178.31300808994	138.464054364904	2142.84690589585	1073.72887527522	146.038183470358	1589.26068475056	475.309723688689	134.484467209607	738.75771192873	1159.11006901539	166.228852081838	1633.35774243355	634.933869104944	148.110833148395	917.882346389793	971.18494506105	181.05353591906	1266.79116772251	1162.80225576042	182.028429474207	1938.29940969097	1280.64083504441	146.110833148395	1638.05501838566	965.701068165327	171	1961.27530374862	1241.74031487379	135	2294.05244106136	806.192935565165	207.748513933821	1603.95527293529	1085.54948872529	139.998672777103	1826.78111654513
542.865317386047	141.885042597189	914.561144935594	834.773610148445	219.46419959188	1126.08581030805	597.305831231571	149.27885017535	904.151961953841	1237.61024585093	157.324223878791	1599.21862238575	1178.55779878866	138.472276263629	2144.0036930018	1073.80766579242	146.070480148294	1590.26547814574	475.281517276211	134.494308759997	738.810564274699	1158.60854751125	166.217106878888	1633.10648667162	634.912364702761	148.153555464955	917.712941254448	970.922153508979	181.065550279303	1266.30998389436	1162.89744710096	182.052473253798	1938.33292764387	1280.64669154267	146.154882687852	1638.32277610712	965.915249178035	171	1962.40050817824	1242.1950257844	135	2295.93038633426	806.638962735616	207.804149379748	1605.78817191078	1086.234438954	139.994022524852	1829.08456719103
543.046375358556	141.870037881899	915.279980048365	835.415887865126	219.529473161733	1127.53066411675	597.457394364838	149.28491826365	904.608759593181	1238.2198102259	157.34872963556	1601.05014551532	1178.930479725	138.493243394961	2145.64393169165	1074.12357819704	146.118280432165	1591.7183738397	475.330241464282	134.509812435506	739.041139925105	1158.67038210107	166.232973277341	1633.96005817658	635.022541823392	148.198833526873	917.772088163712	970.974552686169	181.094236652574	1266.53252301392	1163.17833060867	182.084936148072	1938.79400811714	1280.93960920733	146.20481100202	1639.22941166021	966.279582786707	171	1963.67033093232	1242.91790798327	135	2298.1620674087	807.08207638302	207.873712089757	1607.47842216362	1086.98933821407	139.983599945141	1831.31872331669
543.345068690144	141.845117312148	916.2968093971	836.148291121043	219.57817003247	1129.01808818322	597.718681712368	149.286676330094	905.290286499009	1239.02309460958	157.373730256533	1603.06991665291	1179.44202103982	138.527191979849	2147.7200190147	1074.68123074288	146.179089624869	1593.54377955919	475.464481704857	134.531600588606	739.454404177851	1159.34773508675	166.279591027901	1635.92429330562	635.266594178222	148.241586843051	918.065887498745	971.343879733493	181.136204150883	1267.46062589602	1163.63542183521	182.123127125378	1939.69535053509	1281.50647187956	146.259314120807	1640.72754862117	966.762443267552	171	1965.0751486832	1243.82914995375	135	2300.62688638742	807.479770150656	207.951015078957	1608.95354016849	1087.73833278528	139.964470975436	1833.34236620707
543.743094032532	141.815645190582	917.563678790256	836.926015488386	219.600656090061	1130.47206401831	598.070140518181	149.281359172971	906.165004218925	1239.93742932322	157.392863963839	1605.14615856479	1180.08748092093	138.57239479772	2150.13300144424	1075.4536751765	146.247988558491	1595.60851546919	475.681835764729	134.558532023919	740.036351196806	1160.61855160665	166.35530223657	1638.8733711273	635.640185237818	148.276136516073	918.587055640915	972.000047143184	181.187345582126	1269.03095148358	1164.24801354667	182.162239137273	1941.01360314865	1282.30866232247	146.317643015785	1642.71947684475	967.316715515282	171	1966.57166469723	1244.82242035831	135	2303.1448802342	807.781278157374	208.023952945243	1610.13250921936	1088.39642993361	139.935497326854	1835.00650041153
544.20806716237	141.786059582633	919.004017014395	837.691448530629	219.590897286735	1131.81304863886	598.478360593059	149.26797160068	907.182417066341	1240.86094390714	157.400997949186	1607.13961720592	1180.83981835591	138.623282099245	2152.74870285667	1076.3789473556	146.316859967263	1597.74561482678	475.969463354035	134.587923890678	740.754312474527	1162.38666590711	166.452519943772	1642.57174628198	636.129371991784	148.297383264146	919.316650077001	972.882797769678	181.241674756429	1271.13016029911	1164.9793098047	182.196301052989	1942.69643359319	1283.28518295513	146.37828599215	1645.07634752605	967.889058037181	171	1968.07887788979	1245.78501005308	135	2305.49668562126	807.939315896298	208.077476712487	1610.93452372046	1088.88634606364	139.898119622694	1836.16978537802
544.698727465766	141.761241188087	920.517362632307	838.384809564626	219.549217063737	1132.96636854747	598.904082642161	149.248774306787	908.274315757236	1241.69251502846	157.397534895939	1608.91663020086	1181.65228768923	138.674904893271	2155.40948755393	1077.37015938027	146.377244919675	1599.77709199229	476.303637448743	134.616257723363	741.558863405716	1164.49180341805	166.559229858837	1646.70461117619	636.712162801614	148.301945603018	920.21994188929	973.909892419186	181.292448657554	1273.59700779966	1165.78288659048	182.21954192883	1944.65180886031	1284.35747919784	146.440682227785	1647.63843005243	968.425381614297	171	1969.48092834313	1246.61204909123	135	2307.4452756149	807.917654502334	208.097220614491	1611.28490354345	1089.15075009965	139.855112176798	1836.71636962468
545.17431615214	141.744296958853	921.993131523277	838.953136591522	219.480345654965	1133.86759795207	599.309175924671	149.227175087702	909.361893604668	1242.35068124768	157.383100422913	1610.36314070363	1182.45906482756	138.720141773213	2157.93215331457	1078.32243063695	146.420493234069	1601.52641763697	476.653007371949	134.641205817964	742.385124740844	1166.73147987052	166.662704657926	1650.90560852268	637.358508786662	148.288951683717	921.230188014971	974.990232441158	181.333977653745	1276.2199600708	1166.6061105385	182.227794757601	1946.72444170089	1285.44255014453	146.501665209418	1650.20301040084	968.878259652481	170.998672777103	1970.63560022297	1247.21937912622	135	2308.76230951864	807.700622393941	208.072570164597	1611.12599883527	1089.15847619188	139.810536639507	1836.56714049615
545.595986659692	141.737979682022	923.320469081539	839.353300530968	219.394069214826	1134.46856272861	599.65993274061	149.208421306685	910.362446535142	1242.77966618652	157.362933543449	1611.39516608429	1183.18629934034	138.755097634543	2160.13399748351	1079.12872230189	146.441708982522	1602.84086356668	476.982856230142	134.660399983371	743.156481603392	1168.88677061482	166.749103003941	1654.80468818147	638.023221510155	148.258938157123	922.250446077501	976.027003164649	181.360020368279	1278.75588128753	1167.38579373397	182.218214705933	1948.71037638762	1286.45056748476	146.557381445279	1652.54164552928	969.207604019115	170.995349747749	1971.39915196581	1247.5431888504	135	2309.26088406039	807.295075330214	208.00058907012	1610.42651034119	1088.90482098829	139.767293132287	1835.69332377298
545.929326929501	141.742542020895	924.395097985277	839.55318673721	219.30176631751	1134.73616488956	599.927027817168	149.19531886373	911.191198880122	1242.94338699168	157.341427044915	1611.95133202492	1183.75615048595	138.775178638456	2161.82997464617	1079.69031289058	146.439622203775	1603.59704423782	477.255324752797	134.675144033456	743.789758455161	1170.74448474906	166.809912196645	1658.05393921776	638.65106707284	148.215430022694	923.154640643254	976.931564476646	181.366705105655	1280.94892646852	1168.05617356246	182.191650800738	1950.36901329885	1287.30031186514	146.60372691006	1654.41655536639	969.384698948736	170.986922974495	1971.63496091586	1247.54830612336	134.998672777103	2308.80900955623	806.729218741167	207.8854523818	1609.18317061051	1088.40829104792	139.726136403815	1834.11256626011
546.146038739741	141.757112126497	925.129850801344	839.531660926197	219.212713525701	1134.65496102689	600.085679979774	149.18963417649	911.769467730921	1242.82322624974	157.323008258408	1611.99653727823	1184.09953518591	138.779574691417	2162.85167779573	1079.93061182431	146.416641147968	1603.71164993357	477.4358973934	134.685680013569	744.202636962234	1172.11612770554	166.838885845226	1660.35203472951	639.17658432879	148.162239137273	923.793481747539	977.624995621784	181.351352726526	1282.54689847484	1168.54875265659	182.150489334665	1951.4417101858	1287.92291555336	146.63520562514	1655.59718132667	969.38849283271	170.970243302896	1971.23345340914	1247.22061045495	134.995349747749	2307.34003195758	806.043423848926	207.736738269034	1607.41743589894	1087.70241815216	139.685412952625	1831.88558786741
546.221506118515	141.779919725055	925.457157400939	839.278775585786	219.13275914962	1134.22411092391	600.113767548828	149.19066861148	912.028948628016	1242.4086308288	157.309926495302	1611.51263648611	1184.1585721921	138.76964237232	2163.0423233308	1079.79716099791	146.37801689338	1603.13135448898	477.494667072608	134.695682626841	744.318884815027	1172.84918355391	166.834583326388	1661.44911155667	639.529304125109	148.103998155673	924.015414523945	978.034983958175	181.314327493379	1283.32378440672	1168.79345703583	182.099347903422	1951.68925756116	1288.25788507836	146.648020792784	1655.89036385935	969.202767926874	170.941549271054	1970.11750517057	1246.56115827943	134.988250197392	2304.85284549702	805.2809357849	207.566603463712	1605.1713355783	1086.82529274531	139.642960755922	1829.10702664634
546.139794638552	141.808633553603	925.33216122824	838.796936413116	219.063175450249	1133.45612017437	599.993708419996	149.196671504077	911.913273022563	1241.69623199469	157.302854400222	1610.49237282514	1183.8923842332	138.746847239507	2162.27851214593	1079.26793626612	146.330392232679	1601.8394771602	477.409643011158	134.704808983274	744.077102334833	1172.83077641692	166.798960560186	1661.15283685946	639.642695518221	148.045539919779	923.684589813363	978.097536403033	181.25919228684	1283.10838150448	1168.7240333796	182.044212696882	1950.9216488062	1288.25821119989	146.641110176441	1655.16542138198	968.817973236906	170.897336574172	1968.25764963621	1245.59212168799	134.974893555147	2301.41280816359	804.484001497469	207.387246639957	1602.50615571666	1085.82442264757	139.595373815699	1825.90227404024
545.892073141005	141.840728917759	924.733361894958	838.102402478711	219	1132.37296552476	599.715424552248	149.203395865745	911.383709921277	1240.69510919355	157.298850372994	1608.94066633578	1183.27837394271	138.716274569484	2160.46152209941	1078.34903337651	146.280171836026	1599.83978205625	477.167794310245	134.714540261749	743.435351849945	1171.99257512432	166.736738269034	1659.31785703966	639.462843514048	147.991316327682	922.700280981994	977.753163778263	181.190852496646	1281.79043329993	1168.28274959371	181.989989104785	1949.01941363913	1287.88577372374	146.614772150214	1653.36319479277	968.226596246519	170.83536637491	1965.6635843441	1244.34408941578	134.954626296559	2297.13620699811	803.682816360037	207.208063273451	1599.49395654278	1084.74210620253	139.541316439941	1822.41168373959
545.480891752293	141.87381134399	923.67212598165	837.225188711146	218.935497326854	1131.01390534188	599.276601940933	149.208050855597	910.431101243423	1239.42900418775	157.295104782036	1606.89176920254	1182.32423736937	138.682444897593	2157.5617278149	1077.08470144631	146.232177810965	1597.18405744077	476.76933670103	134.721556909488	742.381763735708	1170.32942820299	166.654422508224	1655.88725328301	638.956872864821	147.944698577121	921.016700259906	976.955844789844	181.115102629788	1279.34494713189	1167.43374973901	181.940048324871	1945.95920143812	1287.11927075101	146.573773771993	1650.51630978439	967.426640858024	170.755530911825	1962.38884441651	1242.8604078454	134.927093271276	2292.18487844235	802.896089619763	207.036856247461	1596.21885241714	1083.62152959502	139.482455926383	1818.78598155447
544.921072961279	141.905846523204	922.189590200877	836.208637270784	218.86259059813	1129.43222582679	598.687379748449	149.206814674564	909.074909773555	1237.94458002465	157.286676330094	1604.40735491526	1181.0629619373	138.648295068499	2153.63429084663	1075.55046460077	146.188939865967	1593.97589850397	476.225835254579	134.723609492152	740.938506793226	1167.9004343224	166.559229858837	1650.91668085095	638.121494392202	147.906017339201	918.657705779005	975.686015441928	181.036073198939	1275.85195727998	1166.16953892007	181.894267536593	1941.83030621642	1285.96071461483	146.523085901974	1646.75997738098	966.428045544098	170.660312069993	1958.54223737619	1241.20150532276	134.893817103856	2286.78102480492	802.13423632193	206.878816929702	1592.78664090854	1082.50664900407	139.421641171458	1815.19148426813
544.242981328302	141.934192821633	920.362116554322	835.108463682119	218.775536671691	1127.70011624905	597.972708715404	149.198955498783	907.369905506031	1236.31699475038	157.269845431688	1601.59534323725	1179.55686271142	138.616274878817	2148.82877798735	1073.85405868647	146.150753626262	1590.37986976741	475.562265572131	134.71733993452	739.164969782701	1164.83414180262	166.45814764768	1644.59562203047	636.987494675988	147.874352818591	915.72213306757	973.961773708988	180.95675649278	1271.49872756728	1164.5216168414	181.850573596635	1936.83339132981	1284.44336015925	146.469743789745	1642.32769178958	965.253141576578	170.554667519964	1954.2768023329	1239.44154112385	134.858194337653	2281.18624172813	801.401779252497	206.738338490252	1589.32026079045	1081.44086889876	139.364250466523	1811.79447729113
543.490350987958	141.957949325913	918.302200157468	833.988111560009	218.673127237637	1125.90795184951	597.173237028921	149.185594118937	905.407644900836	1234.64812274813	157.244648373683	1598.61113704166	1177.89614772262	138.585810919486	2143.40245492925	1072.12996338657	146.117482266015	1586.62948608241	474.81510662327	134.701821269479	737.157299916413	1161.33157310593	166.358366466975	1637.27162985369	635.619603682002	147.84733848066	912.37754702451	971.85103063633	180.878194535297	1266.56468710064	1162.56446722689	181.805287806573	1931.26080786073	1282.63995566067	146.419523393091	1637.52618170177	963.945503498731	170.446659702933	1949.80107916271	1237.6708228952	134.824945695083	2275.7118737641	800.706169016182	206.619790859201	1585.97387226148	1080.46838857423	139.316900615389	1808.76953686483
542.716491927509	141.976220778044	916.150947604664	832.913073055648	218.559229858837	1124.15700724818	596.343379682135	149.171020884849	903.308588892379	1233.05659455964	157.212701107848	1595.64754768358	1176.18817225476	138.555994742861	2137.68915180929	1070.52159231721	146.088381149336	1583.00136346267	474.031083920001	134.676991741592	735.038876622686	1157.64447307393	166.265715836247	1629.42760018469	634.11143213306	147.821599948054	908.844063891413	969.476975590062	180.801166473127	1261.40301131125	1160.4133880359	181.755792769687	1925.47116777844	1280.66355837878	146.375919596663	1632.71088785575	962.56775010769	170.344338182257	1945.36331717768	1235.99173355664	134.797809385242	2270.69414895967	800.062067745983	206.528977567213	1582.92054275826	1079.63125125603	139.283865316468	1806.28239868507
541.979063285663	141.988250197392	914.059893285805	831.943013041614	218.440770141163	1122.54357161863	595.544265057426	149.160390457677	901.206583075003	1231.66280892007	157.178639192132	1592.90647106531	1174.54663742392	138.523156659897	2132.06696597226	1069.1653330663	146.062484149013	1579.78563660218	473.261071383431	134.64417074451	732.950023005291	1154.04854069426	166.185067100016	1621.63469492426	632.577694885389	147.79571018864	905.362521371507	967.006516734523	180.727990379594	1256.3925468467	1158.21378389028	181.701556711844	1919.83450222095	1278.65877508766	146.341422237741	1628.23345164565	961.199408893238	170.256218890783	1941.22972224761	1234.50844036366	134.780370157792	2266.46391714421	799.490752631037	206.471586862278	1580.33523679741	1078.96380619818	139.269034058427	1804.47249463099
541.332961060936	141.994022524852	912.177698591366	831.127022376643	218.325545539466	1121.14695660534	594.838145961868	149.158656149942	899.23418981729	1230.57215331944	157.148233570231	1590.57299472617	1173.07950963587	138.486043513372	2126.90076065688	1068.17274685109	146.04072345119	1577.23999520202	472.558125131453	134.606244394412	731.031240894349	1150.8164528078	166.119607655062	1614.48160045575	631.135338584485	147.769385473256	902.165375956161	964.627122322583	180.659596872106	1251.88812027885	1156.11754078602	181.644524040144	1914.68646182045	1276.78118182274	146.314153770093	1624.39541363995	959.923349812078	170.189740069943	1937.64292247174	1233.3094793276	134.773270607435	2263.28919108069	799.016017361047	206.451581102413	1578.36323796824	1078.48204957313	139.272126588677	1803.41824329194
540.822955125386	141.992695301956	910.625267174757	830.496708843712	218.221140298956	1120.01431345605	594.276441179959	149.167687555673	897.503515923991	1229.85896486179	157.125659599262	1588.77985966757	1171.87509875135	138.443569813934	2122.50929521338	1067.61533764951	146.023779221956	1575.55654354062	471.968555067614	134.564962631577	729.41156053933	1148.17960835989	166.070480148294	1608.50180174037	629.891435825686	147.743607385931	899.448509892087	962.5221801401	180.600736358548	1248.17917561008	1154.26598821461	181.58898655594	1910.29235769172	1275.17846718996	146.291777015081	1621.41613134537	958.816511629026	170.148037129269	1934.78906273574	1232.45712856924	134.775357386182	2261.3359731007	798.657909693021	206.470259639381	1577.0908964743	1078.1785000417	139.289830373762	1803.11381827134
540.481485825977	141.983599945141	909.483222041959	830.064842640182	218.13163707441	1119.15410246051	593.895560662726	149.185611274391	896.093590232377	1229.55657732258	157.114957402811	1587.58768662146	1170.99488779539	138.396469530903	2119.12200466781	1067.5167735945	146.011749802608	1574.82900822544	471.530260086737	134.52051769087	728.190455613117	1146.30421415936	166.036856247461	1604.10148767375	628.932304090141	147.720517736897	897.352685976609	960.848963599983	180.554257735352	1245.46847645271	1152.7731790117	181.540901093108	1906.83287876373	1273.97346575129	146.271862227507	1619.42681887779	957.939919297763	170.132684680567	1932.77146830651	1231.97814846063	134.784222243893	2260.63547342096	798.425455740084	206.524327314962	1576.52513368756	1078.02199992401	139.318970238682	1803.45757455038
540.32220923114	141.964470975436	908.781132634538	829.821254053296	218.058450728946	1118.53533457928	593.708227636396	149.207265107301	895.038401442415	1229.64926863026	157.115483400646	1586.97472873893	1170.46670076848	138.348371602325	2116.86543626766	1067.85176240193	146.004650252251	1575.05154871623	471.267457495232	134.473504833982	727.432001713576	1145.27322986371	166.016400054859	1601.5182043627	628.309284180438	147.70314023038	895.951877500634	959.70877185281	180.523783406625	1243.85088106476	1151.70690474839	181.506839177392	1904.39117235906	1273.24298391442	146.253515600901	1618.45986424511	957.327136430054	170.140589845499	1931.59513190154	1231.85875563993	134.797037411537	2261.07809619238	798.31240949285	206.606713833696	1576.58702002337	1077.95796794718	139.353747214343	1804.25682905626
540.342988973664	141.935497326854	908.502465474872	829.738183170989	218.000783048522	1118.10089384506	593.707768496934	149.226729392565	894.333220931055	1230.083549881	157.12590903927	1586.85028631323	1170.28309921308	138.303093540407	2115.74600137542	1068.55300982446	146.001327222897	1576.11349217363	471.18829367462	134.424614788711	727.153872617579	1145.07948771607	166.005977475148	1600.78958579171	628.038922899114	147.694736174802	895.250549707644	959.143063070203	180.513005227415	1243.31396905546	1151.08976393303	181.492571752489	1902.95988354867	1273.01202482883	146.239134775598	1618.46168349592	956.987576034178	170.167959713357	1931.1869711102	1232.05300175267	134.811413429667	2262.44474896799	798.301224533835	206.708581793148	1577.13365081832	1077.92372409761	139.391093918885	1805.26577982237
540.524513648474	141.898119622694	908.592543724958	829.772831723089	217.956570351639	1117.77556989756	593.868597838957	149.237007348724	893.939925082616	1230.7741792011	157.142326853007	1587.07578705836	1170.41227391846	138.26438861335	2115.66562726439	1069.52720128956	146	1577.82659798983	471.287525306297	134.374626635883	727.32883428578	1145.64158527934	166.001327222897	1601.76608797829	628.102627874319	147.697966483604	895.192725333883	959.128342025535	180.522912178687	1243.75537961768	1150.89896105372	181.501665430615	1902.46092203039	1273.25320035899	146.231545723212	1619.31104500011	956.90737582017	170.209461254271	1931.41729878812	1232.49512936306	134.826011060119	2264.45137180353	798.36550851655	206.820366200756	1577.98612731024	1077.85908006553	139.429020338555	1806.22777584282
540.832273348017	141.856439399695	908.973534442178	829.870693462324	217.923573800959	1117.48685979664	594.152221038357	149.233684319371	893.801823984406	1231.6162658927	157.161837614657	1587.49693715642	1170.80357238868	138.235689774334	2116.43797863261	1070.67162119425	146	1579.95482319362	471.544996354571	134.328182829805	727.887370347144	1146.8227318263	166	1604.14502990529	628.451910739047	147.714104680601	895.672679458856	959.586467064269	180.55316657378	1244.99924010703	1151.07761598116	181.534488036812	1902.75804720774	1273.89160311812	146.235523557995	1620.83200625009	957.059662668336	170.260641343704	1932.13064247374	1233.11523553772	134.840728917759	2266.8026304524	798.480974958207	206.934192821633	1578.96414270071	1077.72277013473	139.465252005211	1806.92089432787
541.223005285324	141.816514114655	909.564159067978	829.976323694615	217.90024501174	1117.17842799621	594.513813110744	149.214979589957	893.858821027956	1232.5040769555	157.179704557167	1587.98076373258	1171.39988290328	138.216306674912	2117.82109718295	1071.89141967636	146	1582.25195562468	471.931596589037	134.290280806499	728.730101412669	1148.45793565046	166	1607.52528125769	629.018495798736	147.742542020895	896.552371416728	960.401878400659	180.600736358548	1246.82256157298	1151.54452156268	181.587921190905	1903.68020189131	1274.82112158066	146.251848255272	1622.81409073089	957.409426314104	170.317643015785	1933.1827993828	1233.84891768672	134.856433837474	2269.2437851875	798.627715296718	207.044756871257	1579.92477495381	1077.49653580995	139.499796871059	1807.19940923665
541.648925813216	141.785020410043	910.285384213001	830.039553585383	217.884775398303	1116.81429400144	594.910062155136	149.183485885345	894.057965419084	1233.34342892574	157.195235687953	1588.42997112329	1172.14308214608	138.206138224917	2119.56743333715	1073.10926137469	146	1584.50493802604	472.41087665777	134.268248310131	729.744108825167	1150.37636288425	166	1611.48168991934	629.721701317871	147.779659905021	897.686243713617	961.439225193469	180.659360810781	1248.993829755	1152.20726262604	181.654798471908	1905.05384371626	1275.91452191482	146.278437528291	1625.04444383701	957.921028516311	170.379613215047	1934.45183358182	1234.64464957992	134.874352818591	2271.5834676905	798.79539137632	207.147427804033	1580.77296086151	1077.18849463904	139.531696833553	1807.0026876572
542.066925305234	141.767642903526	911.069379647728	830.023355467675	217.876890030076	1116.38103178888	595.303667492899	149.144887823201	894.356360587278	1234.06615381754	157.208592330198	1588.79241724828	1172.97993075199	138.201213163101	2121.44961541836	1074.27191221163	146	1586.55759517003	472.945082406893	134.267841225293	730.819018768025	1152.42079434796	166	1615.61651114919	630.484647521587	147.821599948054	898.940126313073	962.57031257791	180.722884132384	1251.30398889865	1152.97941502514	181.727446471257	1906.72614497842	1277.05204194475	146.311777212725	1627.33573309947	958.55962056504	170.445332480036	1935.84194812735	1235.46684296286	134.894267536593	2273.69479278217	798.981461348983	207.238665336314	1581.46425795061	1076.82674687182	139.559229858837	1806.34792906369
542.442170584545	141.767642903526	911.860502106232	829.905888319287	217.874352818591	1115.88084383387	595.666633912854	149.106530629557	894.719222125135	1234.634208215	157.220428008357	1589.05640818899	1173.85949907923	138.199885940204	2123.28969478693	1075.34373036502	146	1588.32129537511	473.497544013915	134.291597729573	731.859753652732	1154.45018832614	166	1619.60090157836	631.240620698621	147.863388764279	900.207637526623	963.688267535929	180.784766418268	1253.58726359772	1153.78778384241	181.797581585912	1908.57711735715	1278.13472499846	146.344084190483	1629.54273220112	959.295422830432	170.514742234924	1937.29235642393	1236.29649507992	134.916269102915	2275.52412931435	799.191082410468	207.315185010954	1582.00258084939	1076.4565463034	139.580873322351	1805.3247202095
542.749878215201	141.785020410043	912.607743583971	829.681020024171	217.87381134399	1115.32026144284	595.980072637563	149.076252475754	895.114167765596	1235.03664973904	157.232089897587	1589.22864609578	1174.73014156474	138.20016074977	2124.95587290681	1076.29767793243	146	1589.76174371322	474.035446718249	134.338622564971	732.794949880863	1156.33957206175	165.998672777103	1623.182949813	631.938317658673	147.901196270953	901.412773751867	964.712572003211	180.840467059898	1255.72504867897	1154.57677918876	181.859145596866	1910.51884706818	1279.08779456485	146.370295555091	1631.56778166518	960.097715061053	170.587138142383	1938.75256546659	1237.11760811758	134.938843073884	2277.05546553955	799.426840508989	207.372835535923	1582.41167923389	1076.12000019246	139.596635087847	1804.05306006855
542.979706924075	141.816514114655	913.267156679979	829.355203761425	217.870895399474	1114.70608394098	596.234471123863	149.05930824652	895.506332390541	1235.28842441741	157.243859496901	1589.32111874985	1175.54254045009	138.199906620053	2126.36576855212	1077.11215303067	146	1590.88347339822	474.531663509268	134.403392437003	733.578035830226	1157.98419051926	165.995349747749	1626.19230495883	632.548164629605	147.932865598736	902.507549330453	965.598651527648	180.886512405811	1257.64332737791	1155.31600088007	181.90908637678	1912.48011753854	1279.87602735324	146.386433752089	1633.35515376397	960.937435819713	170.660850416108	1940.1789386801	1237.92193478187	134.95927654881	2278.29883526529	799.692178075953	207.40741140139	1582.72047083449	1075.85714826517	139.604074643472	1802.66181439518
543.128700119731	141.856439399695	913.795647972089	828.945122796613	217.859958870012	1114.03700687792	596.426599233512	149.057123506049	895.854212697787	1235.41869966591	157.254637676111	1589.33251485587	1176.24997745489	138.198833526873	2127.46217687695	1077.76616844343	146	1591.69871480636	474.965658009134	134.476826184648	734.185342065279	1159.29973293571	165.988250197392	1628.51826854144	633.057530398515	147.957949325913	903.463151282589	966.327612429309	180.921115796128	1259.29188255122	1155.99121047017	181.946199523305	1914.38892172484	1280.49251325329	146.391890036576	1634.87085821195	961.786366336239	170.733218798718	1941.53263436953	1238.69894368703	134.976220778044	2279.2771747521	799.987423706503	207.417170204716	1582.95349374103	1075.69381622911	139.603707113354	1801.2707259856
543.202415314427	141.898119622694	914.156596867343	828.472237228549	217.836693597807	1113.30768466121	596.556377910246	149.067134401264	896.116443358239	1235.46184480743	157.262108231356	1589.24944337636	1176.81976870239	138.195235687953	2128.21606084605	1078.24578482391	146	1592.22119003174	475.326054341098	134.548265804524	734.612229586311	1160.23638742632	165.976220778044	1630.11147626159	633.466848823521	147.976220778044	904.258060871344	966.900233998153	180.942876493951	1260.63168107466	1156.60153134837	181.971570525793	1916.15782238237	1280.95303986774	146.389624110262	1636.08954084361	962.612373892717	170.800904615266	1942.77428360477	1239.4293033542	134.988250197392	2280.0127324245	800.304664065538	207.40444295045	1583.12033922532	1075.63667159222	139.597156278507	1799.96923286947
543.208704094947	141.935497326854	914.327847551579	827.957835615999	217.798886091133	1112.51859343159	596.625700576376	149.083730897085	896.260744746286	1235.44824101027	157.263347540875	1589.05532457777	1177.23394787899	138.188136137596	2128.62560098058	1078.546157594	146	1592.46117092022	475.608160466232	134.607838816195	734.869648231893	1160.78249172764	165.95927654881	1630.98178557589	633.784396059842	147.988250197392	904.878751988645	967.331924609091	180.949787110294	1261.63577720534	1157.15002740052	181.986922974495	1917.694974487	1281.28742172961	146.384169991698	1636.99638277127	963.383652556036	170.860472819763	1943.87537682886	1240.09055735505	134.995349747749	2280.53648020937	800.632564352248	207.376267468017	1583.22278795219	1075.67540387429	139.586423082437	1798.82189698843
543.15846217154	141.964470975436	914.301409024693	827.423310679399	217.747365996432	1111.67387798601	596.637680944121	149.101082211157	896.268274912728	1235.40120021034	157.255703041147	1588.73255850327	1177.49196439983	138.176381527814	2128.70656094635	1078.67412306228	146	1592.42414267598	475.815428494504	134.647239782089	734.978827528609	1160.96382970214	165.938843073884	1631.18641711671	634.020147749238	147.995349747749	905.318500133453	967.639584331176	180.942876493951	1262.29404378674	1157.63432477449	181.995349747749	1918.91465245088	1281.52596366183	146.382052213332	1637.58999844326	964.067994426241	170.90908637678	1944.82040297421	1240.6588316996	134.998672777103	2280.88559279192	800.954031822913	207.342923045982	1583.25665727368	1075.7894659558	139.574302690798	1797.86443044723
543.058393715525	141.983599945141	914.09902911417	826.884868873902	217.687955726331	1110.79589087039	596.595171575302	149.113897378801	896.147316817401	1235.33032308824	157.24008603481	1588.28867275243	1177.61220238466	138.16051039176	2128.49735054752	1078.65255538476	146	1592.11913929585	475.958835168227	134.664345490061	734.970123793547	1160.84405844587	165.917596325812	1630.82380002608	634.182775405991	147.998672777103	905.586165517428	967.837199587517	180.921115796128	1262.61813304954	1158.04148939888	181.998672777103	1919.75920001597	1281.6901490902	146.386463325397	1637.89007554554	964.633955757785	170.946199523305	1945.61342776442	1241.11311682086	135	2281.11618893551	801.247242409757	207.31448223092	1583.22201879482	1075.94958207746	139.564330543824	1797.12025850015
542.916359650424	141.994022524852	913.766126647344	826.35820056015	217.627055561336	1109.91955483657	596.50586970089	149.118459717673	895.930913932977	1235.24121592648	157.21726344672	1587.75245369609	1177.62244569881	138.142326853007	2128.05345285094	1078.51028532751	146	1591.56479416146	476.053598236297	134.658315904397	734.881235406833	1160.50657456884	165.898917788843	1630.0212709883	634.279736234077	148	905.708315683697	967.936773947233	180.887839628708	1262.65227728782	1158.35237530551	182	1920.21631445275	1281.79226894335	146.39767478189	1637.94374808974	965.062173053444	170.970243302896	1946.26779851549	1241.4494566304	135	2281.28755638716	801.494135153852	207.298344033922	1583.1202397038	1076.13412845109	139.556678803187	1796.59044090243
542.739649613892	141.998672777103	913.367846305777	825.858245996369	217.571777827594	1109.08902194776	596.381632918156	149.113897378801	895.674089290193	1235.13686571746	157.191454359776	1587.17806894014	1177.56011057654	138.124581816373	2127.44357416839	1078.28599068471	146	1590.79265306176	476.118454155452	134.63441506967	734.75315733044	1160.04701846312	165.8861026212	1628.92316675031	634.320792301052	148	905.733558210683	967.948014730043	180.845117312148	1262.47792946431	1158.54627077006	182	1920.3311000828	1281.83746136996	146.41153463472	1637.83174105452	965.342796933358	170.982272722244	1946.79820241297	1241.67775249717	135	2281.45420279219	801.679193429983	207.29511719989	1582.9553280887	1076.32538376046	139.552147463934	1796.25567589743
542.538737170427	142	912.978220636575	825.403385499341	217.525706289236	1108.34917987539	596.241353906282	149.101082211157	895.43859425994	1235.03117356169	157.1669121072	1586.6323402251	1177.46433726409	138.110833148395	2126.7500422551	1078.01891687067	146	1589.85715411752	476.174644520305	134.598366267095	734.630768357839	1159.55824940418	165.881540282327	1627.68449387569	634.317127166149	148	905.725810550028	967.885482867145	180.796516220876	1262.20906878689	1158.61036526855	182	1920.20218803296	1281.83039132955	146.420755091931	1637.66233054577	965.484180940772	170.983599945141	1947.22261126395	1241.82765021976	135	2281.66481180654	801.801160417385	207.301075016274	1582.74144711586	1076.52047663522	139.549496852048	1796.08316137305
542.328182829805	141.998672777103	912.669478238327	825.01451594129	217.489925172782	1107.74216791227	596.10811740645	149.082403674188	895.284315263194	1234.94907047844	157.146906347334	1586.18884273283	1177.37657091216	138.103207600203	2126.08413870147	1077.75283838018	146	1588.8497894498	476.241762891004	134.558164493801	734.566262192121	1159.12873699855	165.8861026212	1626.48103456097	634.287490358287	148	905.756774142668	967.77698771759	180.746663354341	1261.98248655897	1158.55416538011	182	1919.9718772316	1281.79094709548	146.417258118094	1637.56379853507	965.515319849753	170.974893555147	1947.56503812454	1241.95008658173	135	2281.9654474886	801.875220587196	207.309338214441	1582.50777288709	1076.72895313841	139.54596112997	1796.03326054666
542.130151940645	141.995349747749	912.504687506237	824.71810164866	217.462530838987	1107.30658337662	596.01010336341	149.061156926116	895.261762695737	1234.93615844372	157.135390877738	1585.9231515377	1177.34248093952	138.101880377306	2125.57936227657	1077.53924899805	146	1587.89437752502	476.340297255242	134.519392487174	734.612068704636	1158.84343081354	165.898917788843	1625.50357943247	634.256409316751	148	905.899238353424	967.668271292265	180.70008426197	1261.9476639997	1158.41172403332	182	1919.8109846101	1281.75663771988	146.39725067954	1637.67854240306	965.484862076106	170.95927654881	1947.8659887013	1242.11022086306	135	2282.41041741895	801.93431854452	207.313788881226	1582.30562621508	1076.97322495693	139.540530691645	1796.07494794303
541.969818687496	141.988250197392	912.539769729842	824.538807320833	217.440345900871	1107.08261854037	595.97261469793	149.04072345119	895.410599006996	1235.04543186077	157.133754852776	1585.91620399365	1177.41164203425	138.106182896145	2125.40135000637	1077.43800123294	146	1587.15832016124	476.488368443042	134.486055931226	734.82565334386	1158.78788936766	165.917596325812	1624.96811452087	634.255548495978	148	906.223632448368	967.620423139326	180.661893284665	1262.25555571065	1158.24366430361	182.001327222897	1919.90593623002	1281.78836569723	146.360134474102	1638.15537504515	965.457005488974	170.938843073884	1948.1892002951	1242.38678503923	135	2283.07694097412	802.02754956927	207.312456851155	1582.21126198967	1077.28616412685	139.531344292966	1796.20072558083
541.873517989868	141.976220778044	912.82328909562	824.49936889657	217.42164673368	1107.11753441536	596.017340448034	149.023779221956	895.763426068116	1235.33331099748	157.143915933765	1586.25506707755	1177.63339987615	138.112832013765	2125.72738652546	1077.51512524342	146	1586.82626843074	476.702046672282	134.461226333766	735.259756412059	1159.04044845391	165.938843073884	1625.0929271772	634.319371264656	148	906.789181016544	967.704530543242	180.636897470866	1263.03177868613	1158.12712268707	182.004650252251	1920.4252375891	1281.95858449026	146.311665540638	1639.12331470376	965.507105020804	170.917596325812	1948.64546932053	1242.8663574298	135	2284.09588301333	802.215445240032	207.306160274121	1582.33880505195	1077.71028305678	139.518854141059	1796.45446171118
541.865164178549	141.95927654881	913.394025817131	824.615487192405	217.408566938828	1107.45923706975	596.156246058487	149.013077025505	896.342815995646	1235.84471444867	157.16715368112	1587.02473474988	1178.06048285122	138.119874853948	2126.71416471814	1077.84207916643	146.001327222897	1587.07176128869	476.996622756709	134.445420393414	735.956037753066	1159.67565141261	165.95927654881	1626.06508591157	634.482949835164	148	907.639711138009	967.984649617436	180.628644642094	1264.35651097232	1158.14162917722	182.013077025505	1921.49190043473	1282.33653534905	146.261065583996	1640.66861828945	965.707886670298	170.898917788843	1949.3743327523	1243.62905123865	135	2285.62774609099	802.556181922767	207.299770511053	1582.82002242669	1078.28738948789	139.504044845646	1796.91982473962
541.96205618061	141.938843073884	914.279484249288	824.894445136361	217.405225861029	1108.15173463372	596.394052836192	149.009300504501	897.1648563626	1236.60806047465	157.205339920825	1588.29710089372	1178.73757110775	138.124437192821	2128.47278029857	1078.47966637821	146.004650252251	1588.0258445384	477.383244549823	134.437953312939	736.939361092488	1160.74752785862	165.976220778044	1628.00697917075	634.774975329424	148	908.796259747304	968.505685857716	180.638652408824	1266.24531643605	1158.3544239925	182.028429474207	1923.16007898571	1282.97093991138	146.217363777952	1642.810403698	966.11923444299	170.8861026212	1950.53439955271	1244.7363861664	135	2287.85254413175	803.100541054432	207.299500391196	1583.79302344928	1079.05436958075	139.488764166224	1797.7150092518
542.17131541568	141.917596325812	915.485741480836	825.33375679335	217.419899356776	1109.21864791888	596.724834998255	149.013077025505	898.229491353221	1237.6249328636	157.258611478715	1590.10901213232	1179.69226329792	138.126974404306	2131.02202625464	1079.46323874136	146.013077025505	1589.73168492401	477.870334846465	134.43796830247	738.204928046493	1162.27181975433	165.989577420289	1630.92919510447	635.209775236349	148	910.255269667129	969.278854941262	180.666022346255	1268.64642498188	1158.80150526209	182.052473253798	1925.41167557104	1283.87293110737	146.187864131536	1645.49559129466	966.77515595214	170.881540282327	1952.27706170267	1246.21314437178	135	2290.92350121462	803.875976305436	207.312323286985	1585.37482261278	1080.02968833822	139.476843340103	1798.96411364251
542.488639590271	141.898917788843	916.98627764644	825.921714255326	217.45983705967	1110.64574829902	597.137189439803	149.023779221956	899.512230741504	1238.86950924147	157.326872762363	1592.43630094838	1180.9260805926	138.13083890826	2134.29558810406	1080.78603311113	146.029756697104	1592.13741504875	478.457211130987	134.444904764975	739.723110797437	1164.21437165901	166	1634.72539433008	635.783596429149	148	911.979305458643	970.273340012557	180.707551342446	1271.43789768557	1159.48093482835	182.084936148072	1928.14637188046	1285.00392708316	146.175335821541	1648.58951595107	967.675362132386	170.8861026212	1954.69173960466	1248.03541991123	135	2294.90360313436	804.880517723316	207.340893180994	1587.61930854565	1081.20607090767	139.47052480044	1800.746622229
542.896810617086	141.886102621199	918.720692730525	826.634083742302	217.532229838643	1112.37506269811	597.611167644984	149.042050674087	900.963377031226	1240.28769840166	157.409276436551	1595.1865199692	1182.40644941531	138.140854403134	2138.1262949521	1082.39117829129	146.058450728946	1595.08140536438	479.134547411863	134.458235561058	741.43396199315	1166.48420969288	166.011749802608	1639.16074000099	636.473525089098	148	913.901379235205	971.42099483556	180.758325243571	1274.44782861144	1160.35274619635	182.123127125378	1931.20484536906	1286.28390147666	146.178661909808	1651.89897207408	968.781492095108	170.898917788843	1957.77767854127	1250.12616104206	135	2299.72606999631	806.075697418933	207.383534825085	1590.49072502815	1082.54393273475	139.469897450288	1803.0670503582
543.367410072413	141.88021305943	920.589998322046	827.439459017524	217.638792294775	1114.29939273702	598.122940984238	149.065807178367	902.499887810092	1241.80228899926	157.500599844383	1598.18983855362	1184.0655216243	138.163820351944	2142.27351866755	1084.16806478573	146.102663425828	1598.31145509443	479.880728909066	134.477515757571	743.254401476844	1168.93542412417	166.028429474207	1643.90207567172	637.238534378283	148	915.930495897001	972.626027695973	180.812654417874	1277.47358204044	1161.34571373263	182.16356636017	1934.39036663429	1287.60065010389	146.192781582672	1655.19259113183	970.020475713423	170.917596325812	1961.41638730198	1252.35951815619	135	2305.16367772315	807.390765706293	207.432143782444	1593.84671876328	1083.9726364051	139.474173776681	1805.8257887104
543.863448115705	141.881452368949	922.464682086214	828.296857069845	217.775009514828	1116.27260908301	598.643442309812	149.094153476797	904.014966018962	1243.31932850645	157.593975834879	1601.21503403711	1185.80109337952	138.204029853383	2146.44231175064	1085.96204708998	146.163306402193	1601.50952232847	480.660997809008	134.501413117529	745.082925361491	1171.37802288092	166.052473253798	1648.54809062493	638.028008071631	148	917.958774727929	973.780010031401	180.865123072014	1280.31035641335	1162.37458242559	182.20095130524	1937.49992026686	1288.83021611032	146.21149111926	1658.23554213961	971.291271172652	170.938843073884	1965.36813177384	1254.57132910639	135	2310.83470605786	808.726704567503	207.473764791959	1597.44070207638	1085.39294930956	139.480695426204	1808.8136897086
544.343252562106	141.885840763338	924.198873999409	829.158456609319	217.92962574516	1118.12841285766	599.140729331563	149.124861433113	905.385932098708	1244.73631791158	157.679179181837	1603.99701228265	1187.49122720878	138.262270834983	2150.33009073186	1087.59452440811	146.239818835924	1604.34411709589	481.429590402128	134.529311994242	746.810187023965	1173.60360507203	166.084936148072	1652.69344638077	638.789259325866	148	919.86695647836	974.782822420467	180.910413599677	1282.76288703376	1163.35843325576	182.231291731438	1940.33351513352	1289.86301089235	146.228056615462	1660.80694303731	972.480983780781	170.95927654881	1969.3013980122	1256.58392217187	135	2316.24571879814	809.973278823819	207.493257643107	1600.95285036192	1086.6948325888	139.485102772129	1811.735410133
544.764966302733	141.889166851605	925.64570575642	829.974670408318	218.085467904594	1119.70108349944	599.579273970595	149.155948052887	906.485998955088	1245.953716822	157.745779974587	1606.26845627437	1189.00259525409	138.333710454859	2153.6457174086	1088.88276385494	146.326610904502	1606.50341298248	482.132274796245	134.557495551102	748.324704063602	1175.40183459237	166.123127125378	1655.9629997735	639.473432524243	148	921.538517020795	975.557626550395	180.946199523305	1284.67421804061	1164.23590554911	182.251573979557	1942.72629153905	1290.62018025756	146.238758811913	1662.73174025109	973.480660443713	170.976220778044	1972.85779501885	1258.22995601213	135	2320.88467055061	811.025743104835	207.479915990393	1604.04967158109	1087.77204907726	139.483775549232	1814.27330598124
545.092214791566	141.886369820086	926.682078670787	830.695682009688	218.224365904367	1120.85593328694	599.925319839821	149.18426689604	907.208961177309	1246.88325052949	157.783683676582	1607.81002291353	1190.20889656152	138.409803455472	2156.13732436783	1089.6684614352	146.415575782932	1607.73643325296	482.713425952916	134.582986363117	749.524030460489	1176.59181088955	166.162239137273	1658.05710594495	640.04002935047	148	922.86462913719	976.056906610989	180.971570525793	1285.92687353552	1164.97096990067	182.26026538002	1944.54990333275	1291.06189129027	146.241586843051	1663.8865031876	974.199847894849	170.988250197392	1975.70804145517	1259.37543298709	135	2324.30086627892	811.799017890315	207.429871266536	1606.43445456843	1088.54005042592	139.474717951056	1816.13452685728
545.295833545735	141.874340400738	927.232457768845	831.275711780163	218.331705137838	1121.51589898296	600.148141450105	149.209378078494	907.489682011292	1247.45525286293	157.788787420482	1608.4931122675	1191.01111432582	138.47841504421	2157.63338000492	1089.8454938764	146.496216791018	1607.89696041922	483.123667561214	134.601692355362	750.328227441492	1177.04806681486	166.196301052989	1658.79205132316	640.459187224203	148	923.761544099612	976.266149842534	180.985595751598	1286.45050678975	1165.55458563838	182.257457979105	1945.72489716867	1291.18553133093	146.23753845393	1664.20963204493	974.582869373607	170.995349747749	1977.61064153476	1259.94496524808	135	2326.19199170413	812.243007720313	207.348272999407	1607.89945960947	1088.95337007639	139.459100944719	1817.11589419367
