Light	Light	Light	Light	Light	Light	Light	Light	Light	Light	Light	Light	Light	Light	Light	Light	Light	Light	Light	Light	Light	Light	Light	Light	Light	Light	Light	Light	Light	Light	Light	Light	Light	Light	Light	Light	Light	Light	Light	Light	Light	Light	Light	Light	Light	Light	Light	Light
Optode1-730nm	Optode1-Ambient	Optode1-850nm	Optode2-730nm	Optode2-Ambient	Optode2-850nm	Optode3-730nm	Optode3-Ambient	Optode3-850nm	Optode4-730nm	Optode4-Ambient	Optode4-850nm	Optode5-730nm	Optode5-Ambient	Optode5-850nm	Optode6-730nm	Optode6-Ambient	Optode6-850nm	Optode7-730nm	Optode7-Ambient	Optode7-850nm	Optode8-730nm	Optode8-Ambient	Optode8-850nm	Optode9-730nm	Optode9-Ambient	Optode9-850nm	Optode10-730nm	Optode10-Ambient	Optode10-850nm	Optode11-730nm	Optode11-Ambient	Optode11-850nm	Optode12-730nm	Optode12-Ambient	Optode12-850nm	Optode13-730nm	Optode13-Ambient	Optode13-850nm	Optode14-730nm	Optode14-Ambient	Optode14-850nm	Optode15-730nm	Optode15-Ambient	Optode15-850nm	Optode16-730nm	Optode16-Ambient	Optode16-850nm
289.342427451462	141.004650252251	580.881789236323	1417.74978717682	241.334553424092	2007.51853387307	655.735763638562	141	1249.77549811089	1001.93617188005	165.011749802608	1411.27176285301	1045.19226616928	130.245018775146	2328.89678399083	1027.95204178392	153.898917788843	1512.26993861184	611.518622025809	128.016400054859	1089.32094068694	1116.20543097022	175.446480417425	1507.44524520814	856.669597118529	141.976220778044	1497.05583635073	1475.5801744773	190.428208965294	2075.90747386651	1283.41999196019	139.565002186297	2271.61378584917	782.479448389764	152.559229858837	1082.64666719946	632.351350559703	128.743063477594	1381.60858672544	950.789543790548	141.013077025505	1845.03728640314	347.843471138988	127.702536467367	891.265855980603	681.15871436314	186.368379262075	1114.8048130012
289.459035986231	141.001327222897	581.202237980622	1418.71438516802	241.425016614575	2008.18470284254	655.826689727527	141	1250.13387750389	1002.08606391055	165.023779221956	1411.65287816929	1045.15296716095	130.244469088175	2330.34171912221	1028.32093457453	153.886102621199	1514.61881995215	611.301102388986	128.036856247461	1090.09240382866	1116.3068523353	175.410857651223	1508.70887133265	856.036511916957	141.957949325913	1498.46307278433	1475.20499050257	190.390424176296	2078.43388427715	1283.68026943266	139.660050212132	2276.59094062168	783.268051569892	152.673127237637	1086.33262125479	632.140435863006	128.722007342225	1384.050100931	952.967665281952	141.057403122788	1851.4684470388	348.247551249029	127.642672705616	893.469327970192	682.145631775414	186.33951420672	1117.51515617522
289.630313770144	141	581.686540804201	1420.14700793679	241.565759345621	2009.41704664846	656.172763792404	141	1251.07959599956	1002.58450121067	165.04072345119	1412.6698742044	1045.4128251901	130.259302779951	2332.45241742703	1029.11343236487	153.881540282327	1517.58109025471	611.370818070523	128.069152925397	1091.38201640951	1116.77462457701	175.407775490368	1510.53328793301	855.537661756903	141.932865598736	1500.18230554988	1475.03217856922	190.386528742296	2081.36916159012	1284.10511934189	139.734030171979	2281.83663775853	784.191367009512	152.772882225897	1090.24502954235	631.922255333579	128.700420588885	1386.6665655854	955.188815287917	141.110307150561	1858.26262689635	348.669629729949	127.566329409194	895.719657026027	683.238109590479	186.344076545593	1120.56441119886
289.849448614136	141	582.367367221033	1422.04191242806	241.765979308874	2011.40349055947	656.752971951857	141	1252.70253239293	1003.40006341385	165.061156926116	1414.43023194392	1045.98428872654	130.291398144108	2335.46251670774	1030.33910514519	153.886102621199	1521.27783548552	611.713838658423	128.113630179914	1093.26777184752	1117.63581837413	175.434618942729	1513.08113420332	855.226627982577	141.901196270953	1502.33478868416	1475.10984738058	190.415940405761	2084.83226147635	1284.71376613105	139.77438317208	2287.46575432958	785.250113951097	152.851962870731	1094.3848709965	631.749003384397	128.68365014858	1389.49398864724	957.399523740882	141.170662851614	1865.21069018642	349.096431958906	127.48524989899	897.94006887487	684.418207718586	186.381194429719	1123.87816205158
290.103990648725	141	583.249076932845	1424.33144429651	242.032903095881	2014.1755949301	657.515646742305	141	1254.9777445303	1004.44584278825	165.082403674188	1416.88520961266	1046.81584693395	130.33836070711	2339.37393297128	1031.9172351915	153.897590565946	1525.64733490909	612.274450980565	128.167339822261	1095.71596973164	1118.82154749303	175.481926869636	1516.32809329581	855.126929425948	141.863388764279	1504.96729091117	1475.41259255346	190.469111701992	2088.79515593565	1285.48642103412	139.77438317208	2293.50111364109	786.406797408147	152.90602024649	1098.68382473686	631.658033924415	128.672860038751	1392.5207966787	959.530959829634	141.235959139143	1872.04882499446	349.512267074638	127.410839720773	900.067643171073	685.656078054005	186.445682251275	1127.35277859011
290.379613215047	141	584.308971953692	1426.89545298738	242.367676482041	2017.63417322064	658.386262066629	141	1257.77915691241	1005.59322076839	165.101082211157	1419.85366526662	1047.80708605023	130.393753171852	2343.96922581314	1033.69893142558	153.912946073561	1530.45466720583	612.965238768388	128.225536559432	1098.58963190969	1120.18242744281	175.53545063688	1520.06904797546	855.218612061154	141.821599948054	1508.02402679927	1475.83718828029	190.530888298008	2093.07237093964	1286.35332835809	139.732702949082	2299.82837335062	787.585782798283	152.934714278332	1102.99818064046	631.657062834869	128.666739977878	1395.65857900563	961.50163746511	141.301242960926	1878.48192777836	349.902308697656	127.351979207216	902.055240868607	686.906504362212	186.529151290499	1130.8570613579
290.658984847096	141	585.498377542177	1429.57172335999	242.762053809917	2021.56435484757	659.277428228285	141.001327222897	1260.9015143141	1006.69093297405	165.113897378801	1423.05723796096	1048.82623046841	130.446921339598	2348.8545371199	1035.49580662913	153.925766048379	1535.3386130053	613.681606551526	128.280786768324	1101.66886469391	1121.52002223212	175.579497255367	1523.96045586149	855.43194330903	141.779659905021	1511.34597494683	1476.22312893695	190.584059594239	2097.35820741054	1287.20096789904	139.655399959881	2306.19344152079	788.686168631994	152.941549271054	1107.12822800513	631.714857647759	128.661727206268	1398.73468419258	963.221992433075	141.361461696999	1884.20955137846	350.251371739159	127.312844477645	903.860008040023	688.109702863103	186.62171400785	1134.23301539935
290.924607741595	141	586.748149310992	1432.17226250454	243.195242543585	2025.6704522446	660.099644698685	141.004650252251	1264.09608277746	1007.58670290498	165.118459717673	1426.17184397462	1049.74047366353	130.49007693344	2353.53566717571	1037.11794489676	153.930847074603	1539.87984416967	614.317960746304	128.32651057327	1104.68868515378	1122.6287128555	175.600656090061	1527.59188993642	855.653946844723	141.742542020895	1514.69072523566	1476.3811646845	190.613471257704	2101.284059992	1287.87856893439	139.554579606586	2312.22033997291	789.596498667057	152.932865598736	1110.84152577662	631.76539386922	128.652932902896	1401.51233109939	964.60484247161	141.410996288605	1888.95849263064	350.543212971363	127.293596594943	905.430902120389	689.195675976565	186.713850688827	1137.30210834512
291.160308151362	141	587.984731240126	1434.49876812175	243.637928977765	2029.64017634684	660.771179581191	141.011749802608	1267.1193349681	1008.14793646519	165.113897378801	1428.9022780777	1050.43537607064	130.516489611827	2357.5246888822	1038.40401947864	153.923747524246	1543.68821290936	614.782510484532	128.357218529586	1107.38584689812	1123.33686871118	175.590897286735	1530.57689899223	855.747013286543	141.715431903498	1517.77907012024	1476.1432071243	190.609575823704	2104.5059309692	1288.22807153638	139.445420393414	2317.47397970018	790.214164710518	152.916269102915	1113.91034175924	631.724550394407	128.638831694332	1403.72369991713	965.573584739683	141.44680966751	1892.50696149258	350.76169692464	127.290560423239	906.698338583433	690.089197898275	186.79798867075	1139.87751491437
291.352046865478	141	589.135990124881	1436.36906835734	244.053515663944	2033.18256850654	661.228865168439	141.023779221956	1269.76425811967	1008.28347327986	165.101082211157	1431.02150286203	1050.83608403763	130.524916385082	2360.42966237419	1039.24996005432	153.901986826423	1546.47124493779	615.008936654152	128.369600419948	1109.54137016314	1123.53905797547	175.549217063737	1532.62746657472	855.579517527798	141.702616735854	1520.34539362678	1475.40666746298	190.570463811809	2106.77213285487	1288.11143460989	139.344600040119	2321.52301714103	790.464262302491	152.898917788843	1116.14194580038	631.510393346996	128.618631846995	1405.12567981654	966.072121322884	141.467530487321	1894.71315344319	350.889495120061	127.297121627481	907.57416867546	690.719424317716	186.86836292559	1141.78317697245
291.488547470145	141	590.140994978634	1437.63724115991	244.406419256839	2036.06479370638	661.432596349743	141.04072345119	1271.88344220325	1007.95188596161	165.081076451291	1432.40055672315	1050.91064497504	130.518506407647	2362.0271283014	1039.61260217649	153.86757237012	1548.08347666668	614.960857726807	128.364429752031	1111.01210772523	1123.20509374707	175.480345654965	1533.60652736126	855.053095695313	141.705158754513	1522.18030134326	1474.15628122916	190.500779129891	2107.96029360561	1287.43650629749	139.267297050918	2324.00712544709	790.307260932651	152.884775398303	1117.39819449908	631.06473485443	128.595390971154	1405.5451827487	966.07063652473	141.473235735212	1895.52104526141	350.908876299121	127.306678961473	907.959938268126	691.030177293276	186.922420301349	1142.87304510266
291.563332837051	141	590.953779450845	1438.20892457631	244.667729322045	2038.13255573932	661.369514237151	141.061156926116	1273.40110862067	1007.16673893779	165.056506673866	1433.01369518492	1050.67363554365	130.502717622749	2362.29739193414	1039.51297712543	153.823356614325	1548.53884146061	614.63371025861	128.344511905544	1111.74971808196	1122.37880488799	175.394069214826	1533.54360569181	854.129211449566	141.722269200086	1523.17175066102	1472.48258697888	190.41101344406	2108.10387137476	1286.18330679377	139.22561682792	2324.7086533473	789.747890611506	152.875562807179	1117.62007662661	630.367698091358	128.573276074004	1404.91697536816	965.571231926463	141.46498290644	1894.97179241108	350.80670857693	127.313900553313	907.767134298877	690.987650699429	186.959820723185	1143.0572164068
291.574121268192	141	591.543452077872	1438.06044099723	244.821048725675	2039.30648320533	661.057407646245	141.082403674188	1274.30078279736	1005.99051749961	165.028973648582	1432.91276163781	1050.17684876392	130.484461647385	2361.41166857376	1039.02306585833	153.773942249907	1547.99554594638	614.053462084544	128.315794602228	1111.79694641462	1121.15970110514	175.30176631751	1532.61188228131	852.841813375446	141.749491385479	1523.30225763895	1470.56039581051	190.313795736858	2107.34906780456	1284.41113849139	139.22561682792	2323.56118871742	788.8338633977	152.868375343444	1116.82054513593	629.445646686161	128.556518099444	1403.29170349034	964.61181120188	141.44428961148	1893.19050014431	350.57593647493	127.316437764798	906.937623677267	690.588488212096	186.982272722244	1142.31257274496
291.52297983695	141	591.89559797105	1437.23500520783	244.865626311424	2039.58621208289	660.540295778278	141.101082211157	1274.6195428764	1004.52503772343	165	1432.20415167035	1049.50067102704	130.468866999585	2359.67784244678	1038.2487864382	153.722007342225	1546.70632024847	613.27173597694	128.285910170988	1111.26571372677	1119.68080630498	175.214040748598	1531.07648824636	851.290395948551	141.779657867194	1522.64737509155	1468.61452023521	190.221140298956	2105.92931993244	1282.24708923422	139.265969828021	2320.67154381464	787.644216179403	152.857411289132	1115.09025232944	628.364511865974	128.549035078455	1400.8287269659	963.266573835834	141.412747751794	1890.38799337868	350.219876785979	127.316315792888	905.468226628721	689.863195854511	186.994022524852	1140.69956806807
291.418549178989	141	592.013543910542	1435.84696926453	244.815702549022	2039.03926465076	659.885626105087	141.113897378801	1274.43308353869	1002.89991727504	164.971026351418	1431.02513191127	1048.73891012344	130.458831708006	2357.47398962767	1037.31477233686	153.669541816571	1544.97280786454	612.358151808724	128.261846594691	1110.31309239512	1118.0847946212	175.138736624767	1529.23951023828	849.62550689505	141.806415444004	1521.3512433066	1466.87996992289	190.142059654121	2104.11018844076	1279.87047007377	139.339949787868	2316.29087546932	786.282150190872	152.836693597807	1112.58370640553	627.213110103201	128.552323842152	1397.75252399658	961.639237889301	141.371884276711	1886.82311324315	349.753725494128	127.319166541702	903.412333042671	688.871894061834	186.998672777103	1138.34814543087
291.272276819293	141	591.920696572813	1434.0560271175	244.696104404524	2037.80672649772	659.173050098522	141.118459717673	1273.8524999932	1001.25001990926	164.943493326134	1429.53098921101	1047.98982418049	130.453585308807	2355.18018387464	1036.34894707876	153.61582444608	1543.09957648979	611.396181386129	128.249905088721	1109.11185344526	1116.51079049285	175.080902728005	1527.38980104452	848.021465868988	141.823885671073	1519.6050242091	1465.55728531592	190.082229950902	2102.15738536772	1277.48653835148	139.434997813703	2310.80302014907	784.861978642713	152.801433672013	1109.51716930849	626.088895030738	128.566412584971	1394.31484727185	959.856575782005	141.323270719693	1882.77991402806	349.203465423893	127.329143378386	900.881780639672	687.700016503998	187	1135.44782186062
291.101082211157	141	591.656546345454	1432.05122346667	244.535420289478	2036.07258153701	658.485564285049	141.113897378801	1273.00099267975	999.703472429747	164.918923548709	1427.86869208697	1047.3458949775	130.449184566137	2353.11236499529	1035.46979755135	153.559229858837	1541.34764436696	610.473201401234	128.253421859264	1107.82414563261	1115.08198641004	175.041506499712	1525.76020154326	846.640302452617	141.82931443071	1517.61590505291	1464.78000205034	190.041506499712	2100.30895416643	1275.29193988169	139.536777859777	2304.67982426136	783.493627739055	152.75121327536	1106.15239021614	625.075861115967	128.589339026953	1390.76600738216	958.050726154003	141.268780066652	1878.55454971495	348.603083747489	127.349589319057	898.03490811109	686.444350873421	187	1132.22846886353
290.924024233696	141	591.273033696122	1430.02728142867	244.358964292611	2034.05325939172	657.897982520719	141.101082211157	1272.00381310321	998.365295115231	164.898917788843	1426.17093881246	1046.87611156073	130.44075772331	2351.49484892229	1034.76476177344	153.499400155617	1539.91301072715	609.667755364158	128.272815386604	1106.58596605954	1113.89087694203	175.017727277756	1524.51274977527	845.606533899408	141.822665313089	1515.57918182499	1464.59396370859	190.019054500653	2098.74631117436	1273.4457935118	139.632403786447	2298.41506704365	782.268631559032	152.690854515393	1102.76093580312	624.23249719657	128.617851611295	1387.32768221124	956.341657703152	141.211915359552	1874.41943798612	347.986672931063	127.379255181812	895.052651297003	685.198751131456	187	1128.93166486004
290.759740241903	141	590.830098886496	1428.15131742473	244.18373987712	2031.97546605943	657.46530472578	141.082403674188	1270.98211207739	997.306095484935	164.8861026212	1424.55455888489	1046.62632346023	130.425680153747	2350.44810989646	1034.29298133933	153.437517869733	1538.91550559413	609.044384551645	128.30536415643	1105.49833918665	1113.0063384563	175.007304698045	1523.73898082838	844.993839166665	141.807218417328	1513.66499463635	1464.97125486654	190.010627727398	2097.59819882668	1272.05715828088	139.711725299781	2292.47517074438	781.25529486278	152.62971000713	1099.60012622482	623.587378805559	128.64882099676	1384.18615622544	954.822306704741	141.15663762581	1870.61104751699	347.385763624223	127.412340666957	892.118575738011	684.04366089939	187	1125.78780728222
290.625663517893	141	590.387798651594	1426.55308374146	244.019054500653	2030.06078672112	657.220582845608	141.061156926116	1270.04557465145	996.562326833096	164.881540282327	1423.11950039736	1046.61441685796	130.402185148189	2350.01022239211	1034.07790085604	153.376796386822	1538.41442834743	608.644427812877	128.344794443254	1104.63165186615	1112.46654017301	175.007304698045	1523.47902656368	844.815364612037	141.78850888074	1512.00134684084	1465.81977126149	190.014404248402	2096.94007233278	1271.17377480685	139.769559196543	2287.25144846569	780.492749732197	152.579506765931	1096.88372581413	623.139802089513	128.679788773111	1381.48729094816	953.550136719783	141.106530629557	1867.31409640122	346.823024594893	127.441297160084	889.394163733995	683.035872702729	187.001327222897	1122.99305916818
290.534340110062	141	590.00393911756	1425.30860387109	243.868394349991	2028.50982115684	657.170585403411	141.04072345119	1269.29466241176	996.134312763558	164.8861026212	1421.95398907134	1046.83346367555	130.374149689651	2350.16546187741	1034.11057026982	153.32407092367	1538.42263821711	608.483673157153	128.383646635115	1104.03235049499	1112.28201526809	175.017727277756	1523.73791483741	845.037896015381	141.770616161641	1510.67648218489	1467.02054737048	190.029756697104	2096.80548042419	1270.79426834235	139.804938035334	2283.03183383654	779.992638108868	152.551336090672	1094.76136982043	622.866861907546	128.708528794103	1379.34705183829	952.540687494422	141.065829896043	1864.66702200468	346.311698864923	127.459742069463	887.007697661857	682.205209407544	187.005977475148	1120.69998354222
290.492637169387	141	589.726097213038	1424.45366786417	243.735015460898	2027.48726271708	657.302702954714	141.023779221956	1268.81333115782	995.999689590133	164.898917788843	1421.13200037669	1047.25158896053	130.346792287538	2350.87270029509	1034.35435720282	153.286519762261	1538.92245395578	608.550214511081	128.416192753058	1103.72727965578	1112.43435850003	175.041506499712	1524.50073068554	845.593220504871	141.756590935836	1509.75040941436	1468.44979982999	190.058450728946	2097.20880244285	1270.87722220494	139.820816899532	2280.00237967282	779.744199467853	152.552663313569	1093.31407301947	622.735827026531	128.731891575821	1377.85621781161	951.77866844846	141.035529024564	1862.76064032153	345.857424688615	127.462671376254	885.046651177601	681.558682705311	187.017727277756	1119.01058185514
290.502129307677	141	589.594540456741	1423.991096276	243.627095557245	2027.1251854917	657.593178302291	141.011749802608	1268.67982131423	996.122894777328	164.917596325812	1420.72327947971	1047.83211453346	130.325545539466	2352.08043683682	1034.76640083069	153.271164254647	1539.88194383222	608.812707024009	128.438220511825	1103.72674547526	1112.88979686193	175.082229950902	1525.73750778479	846.396890693627	141.745336131444	1509.25550271632	1470.00179044774	190.102663425828	2098.14304087244	1271.35640131602	139.823089553381	2278.237462	779.718039972617	152.584157018181	1092.55232538347	622.70835709348	128.749903207917	1377.08120379052	951.220925287642	141.017727277756	1861.65399725443	345.458682503862	127.452787142658	883.563519694031	681.082013088495	187.041506499712	1117.97932377191
290.558646350938	141	589.635323391032	1423.9062376172	243.561314241057	2027.50520326391	658.012450472954	141.004650252251	1268.95011281448	996.462461722352	164.938843073884	1420.77710365092	1048.53710356323	130.315118152581	2353.7602151126	1035.30781625939	153.283080273594	1541.27412231395	609.226791371904	128.448917901102	1104.03618864326	1113.6022385165	175.143386877018	1527.41573315901	847.36036849804	141.73535929476	1509.20892205932	1471.59544244228	190.16463362509	2099.59597182376	1272.15504282309	139.817640997039	2277.73697076544	779.873719883982	152.641459809738	1092.43925312069	622.752514609058	128.760722638677	1377.06387961292	950.8163468874	141.011954950295	1861.38095812736	345.113239401849	127.433582677428	882.579170896451	680.751905476195	187.082229950902	1117.61862697179
290.654624748621	141	589.856579781266	1424.18450413183	243.56315731359	2028.65453843906	658.534465981522	141.001327222897	1269.65204108802	996.982198886753	164.95927654881	1421.31333844693	1049.33402274367	130.316717243596	2355.87879703843	1035.94901316484	153.324166565192	1543.06333305814	609.74215124283	128.451742457471	1104.64420330078	1114.5192355951	175.227117774103	1529.48325754906	848.400710532393	141.723317409667	1509.6127764114	1473.17271221715	190.244469088175	2101.54482499619	1273.19080426707	139.80920941661	2278.43768086632	780.164700890442	152.714633737349	1092.9027747751	622.843938282479	128.764305418492	1377.81670169259	950.515790710982	141.017727277756	1861.94811533016	344.81778132418	127.413138833106	882.088478793499	680.540984931271	187.144714099915	1117.90266229956
290.780702773577	141	590.253717984045	1424.81059420754	243.665560781441	2030.56478344256	659.136380973831	141	1270.78674993847	997.645947254825	164.977548000941	1422.32570516526	1050.20222087833	130.329392818393	2358.41138466163	1036.67855724709	153.392773416329	1545.21532382046	610.312253185691	128.452799560511	1105.5321951167	1115.59064553704	175.332850237511	1531.8770809481	849.447503168808	141.707798744627	1510.45071096242	1474.69251390272	190.341015152904	2103.9444133381	1274.3834041872	139.800114059796	2280.21738602354	780.542050826577	152.791936726549	1093.84983303924	622.970209481969	128.76271363796	1379.30148526707	950.281673085456	141.036856247461	1863.31613510731	344.571717814222	127.39873188493	882.056657372938	680.424088073038	187.231768026354	1118.76580359558
290.926142012063	141	590.807104190018	1425.77227985103	243.902551448285	2033.18586184	659.799138508023	141	1272.32203979763	998.422269552032	164.994227672539	1423.77502674695	1051.12858628833	130.350639566465	2361.31657063679	1037.49598809875	153.48430169869	1547.68565602999	610.89884622708	128.45840394332	1106.66683978718	1116.77222943128	175.458497418919	1534.51519261929	850.44367077568	141.690068767097	1511.69390021812	1476.12220847364	190.451309955184	2106.73601337796	1275.65590584715	139.789416670519	2282.92700078298	780.961166197581	152.86259059813	1095.18619165371	623.12944482699	128.759138516716	1381.4304721465	950.094177660287	141.070480148294	1865.39652828495	344.376482126269	127.395942511982	882.422774926201	680.385241515308	187.345927263016	1120.1076078457
291.079835463085	141.001327222897	591.483385244741	1427.04215594183	244.302091799187	2036.42527119419	660.500500590149	141.001327222897	1274.19306059372	999.271653419217	165.013077025505	1425.58550139426	1052.10583427867	130.377076003562	2364.53956238221	1038.40470140313	153.592309585294	1550.41960061127	611.477118405076	128.475083614918	1108.00862151785	1118.02520064943	175.600736358548	1537.30629634003	851.352921690111	141.673927441613	1513.30054965069	1477.43650127834	190.571067574823	2109.84168206188	1276.94333908568	139.776314157991	2286.39219436934	781.38470474861	152.919097271995	1096.82007497581	623.327712652735	128.757085934052	1384.06128644435	949.949166840551	141.119607655062	1868.03790454702	344.232921525964	127.407229416108	883.095352370476	680.416876850593	187.488254116023	1121.79438652298
291.231047029031	141.004650252251	592.240521222608	1428.57498389743	244.877907854023	2040.15005430791	661.21270278115	141.004650252251	1276.30408533943	1000.14558349751	165.038852053918	1427.65120710888	1053.12070739877	130.405236309425	2367.99056700382	1039.3910210393	153.709550207816	1553.33579075524	612.031197722577	128.506600037206	1109.50519726292	1119.30678577137	175.755357188539	1540.14290303795	852.154845056085	141.663367900461	1515.21514087886	1478.60763139841	190.695841094557	2113.15732279676	1278.18964857231	139.760443021937	2290.4222282148	781.781615393618	152.958493500288	1098.66090559215	623.574502231422	128.761241188087	1387.00381395333	949.851167666301	141.185067100016	1871.02960613719	344.141463728369	127.431662228553	883.958747399401	680.515020261615	187.657859864597	1123.66837498356
291.370481696232	141.011749802608	593.027091506759	1430.29823351469	245.623682266388	2044.17606691739	661.901965919991	141.011749802608	1278.52777394425	1000.98802705056	165.077579698651	1429.82802565005	1054.15050457858	130.433582677428	2371.53049219701	1040.4169737779	153.827651892254	1556.30708290744	612.555162976542	128.551751437505	1111.08740114102	1120.56817415459	175.916269102915	1542.89544621376	852.850424513978	141.662975805155	1517.36360323668	1479.61269730163	190.820033584971	2116.54693281138	1279.35458377931	139.743607385931	2294.80253006715	782.128304489211	152.982272722244	1100.61131489155	623.876937062919	128.773270607435	1390.04075598019	949.806021333477	141.26438861335	1874.12270948587	344.099413054282	127.464532207665	884.885585766475	680.677051122715	187.853370362116	1125.56140084605
291.489381798296	141.025106444853	593.784338178764	1432.1192851596	246.511177068973	2048.26801658321	662.533260234916	141.025106444853	1280.70971500192	1001.73990359913	165.13163707441	1431.94082164841	1055.15422012597	130.462016889236	2374.964902621	1041.41194658135	153.93981496332	1559.15457510242	613.044119049712	128.606246828148	1112.66646029679	1121.74379680822	176.076426199041	1545.41204251186	853.452123458934	141.673401513352	1519.64044400036	1480.42251550756	190.937246752216	2119.82438310957	1280.4007510644	139.729460188216	2299.26858877138	782.399218601155	152.994022524852	1102.54815995487	624.235253659335	128.794486355888	1392.94831393195	949.813612487877	141.353716214724	1877.05191560279	344.099957228657	127.500610144205	885.749596091593	680.896016162065	188.069152925397	1127.30872305693
291.582732371342	141.045373703441	594.453000228292	1433.93503235911	247.49283361035	2052.16431861144	663.076319264534	141.045373703441	1282.69006421196	1002.35235835667	165.200684106353	1433.80526029655	1056.07869308228	130.491631955666	2378.05909887203	1042.28201076221	154.038328963373	1561.66037978404	613.494564818423	128.660312069993	1114.13791246407	1122.75995902207	176.228242756602	1547.53034089302	853.98380938924	141.694194700201	1521.90662762092	1481.01350043986	191.040897174477	2122.76288528513	1281.29934565236	139.72253626103	2303.50232076653	782.568730257025	152.998672777103	1104.31972992809	624.635250050038	128.823618472186	1395.50730890405	949.859459386572	141.446397845072	1879.55416348613	344.13163707441	127.534664888585	886.43258167765	681.153323180402	188.298443288156	1128.75993164567
291.649000282269	141.074233951621	594.977393938685	1435.64622976737	248.509820835444	2055.59919782103	663.515221463247	141.074233951621	1284.317695811	1002.79645741574	165.281499058922	1435.24740055528	1056.86514212962	130.524768099193	2380.5665001081	1042.93049009893	154.118744072014	1563.6016486048	613.905128604741	128.703951603642	1115.3939840963	1123.54526883874	176.363734616887	1549.09892530268	854.47501095711	141.722252044631	1523.99799415639	1481.37024691064	191.126362379296	2125.12089353101	1282.02865714329	139.726919452337	2307.15449258601	782.61289508128	153	1105.75821853189	625.05218514848	128.858194337653	1397.52946319686	949.917302658273	141.53545063688	1881.40528238878	344.179633799244	127.561616884548	886.840500266793	681.42135306614	188.53185748767	1129.79227524701
291.689151328811	141.110833148395	595.313364945205	1437.16892767123	249.499450658425	2058.34340187993	663.847863543784	141.110833148395	1285.4740930117	1003.06666731984	165.366536189542	1436.13245977804	1057.46572747861	130.561762332721	2382.2748492349	1043.28153332948	154.177491254743	1564.79264218668	614.277301135343	128.727620194544	1116.33856807763	1124.04890903412	176.475672685038	1550.0080046207	854.955758437938	141.752824714655	1525.75738587265	1481.49106821967	191.189873145104	2126.69843604125	1282.57487612689	139.74386368157	2309.90628715202	782.508778815549	153	1106.71255954931	625.449709512769	128.893817103856	1398.87763412794	949.950343415683	141.613699057034	1882.45230691339	344.225588310809	127.577814920205	886.910572717074	681.663649930136	188.758332750518	1130.32635655727
291.707873213679	141.154882687852	595.43391969389	1438.4482831372	250.407122036873	2060.23300376374	664.086822745002	141.154882687852	1286.08564315319	1003.18305489725	165.448396710441	1436.38388268635	1057.85247889331	130.602490521511	2383.04348969249	1043.29869460764	154.214438115356	1565.12501004493	614.617409440553	128.727101437619	1116.90242421085	1124.25220277733	176.560619132933	1550.21033448544	855.458697225581	141.782719397825	1527.0526076983	1481.40264415027	191.232357096474	2127.37322370273	1282.94318517232	139.773270607435	2311.5068504802	782.247682838409	153	1107.07276321521	625.78833118831	128.927093271276	1399.48122452189	949.920235461606	141.675581342918	1882.63541960505	344.251226512183	127.581966212236	886.616540716696	681.842276891982	188.967065500519	1130.33218861312
291.710169626238	141.20481100202	595.334854278553	1439.45452472441	251.192028119896	2061.2092225466	664.252412756623	141.203483779124	1286.14334698408	1003.17903658862	165.519571772682	1436.0041340644	1058.03237665207	130.64549803698	2382.85218632149	1043.00336455189	154.232898571075	1564.6069240325	614.940579815354	128.703835193953	1117.06152185583	1124.18573787259	176.617571822984	1549.74900019737	856.012970131767	141.80933138852	1527.81332350296	1481.15785488855	191.257463541327	2127.14868429918	1283.15793761959	139.811863862404	2311.84337801022	781.83827364594	153	1106.80448645157	626.034901433248	128.954626296559	1399.34685367789	949.798234962304	141.717884108894	1882.00147447817	344.23945955412	127.573258143554	885.971629218906	681.924759586089	189.147495417454	1129.83543517547
291.702357181859	141.25798689791	595.031966389085	1440.18582523987	251.83393862841	2061.31255839667	664.367167467236	141.254663868556	1285.69010800498	1003.09427576049	165.575375921921	1435.06279058579	1058.04685303506	130.687525923818	2381.8045589462	1042.46885963317	154.237024504179	1563.36653377488	615.266647032716	128.664443565319	1116.84076267261	1123.92120585366	176.649348015681	1548.7539587896	856.643002231327	141.832302144505	1528.04045321246	1480.83725481172	191.272103096006	2126.15938597584	1283.26637658462	139.855112176799	2310.96120582183	781.31171664992	153	1105.96296964434	626.170028266724	128.97356633225	1398.56519664005	949.57245228906	141.738151367482	1880.70629053444	344.1790883763	127.552916056775	885.028274967222	681.89194769557	189.290605585022	1128.91861169707
291.690063204875	141.311665540638	594.56318861748	1440.66464749026	252.330421829056	2060.69536939113	664.44911320174	141.30456599028	1284.82768017144	1002.96297621277	165.615026279931	1433.69466624079	1057.95770739285	130.724792025463	2380.12242865558	1041.80156175514	154.2338186431	1561.63374427018	615.614175214007	128.618515387681	1116.30978402538	1123.5563747693	176.662067007951	1547.42904409158	857.364387310823	141.85311080812	1527.79715653298	1480.53614444856	191.286149311173	2124.64099289115	1283.32970899304	139.898119622694	2309.049062626	780.719230338338	153	1104.6797702388	626.19448877966	128.983599945141	1397.29222692021	949.255049780024	141.738065491931	1878.98002117434	344.065598082337	127.523156659897	883.866686211684	681.743290496563	189.391534841058	1127.70608069177
291.678489780486	141.361885937292	593.982975502278	1440.92770815266	252.696433920648	2059.59643477403	664.511218865057	141.35118374084	1283.70146065361	1002.81168067735	165.641633533025	1432.0824050399	1057.8370407287	130.755553629501	2378.11950749335	1041.12393504828	154.229310021523	1559.71006281287	615.995872453017	128.576974292047	1115.57749427279	1123.19763789469	176.664979477698	1546.02617143042	858.182773467874	141.873025595694	1527.2045189724	1480.35554493399	191.308194225395	2122.89928351313	1283.41868889025	139.935497326854	2306.41686651019	780.129089400868	153	1103.14775739602	626.130385109824	128.983599945141	1395.73607448243	948.881379766152	141.721209176075	1877.10002923069	343.904703323416	127.489122199458	882.589141169801	681.499031836823	189.449902463799	1126.35194294234
291.671626291453	141.403825980324	593.359561199993	1441.02356470599	252.957038506046	2058.3114229726	664.559792332531	141.391532003341	1282.48562304278	1002.65524453591	165.661110236143	1430.43165009137	1057.75133002158	130.776741922678	2376.15215723058	1040.54874103266	154.226741810419	1557.92558877897	616.413751114423	128.546515022424	1114.77507377813	1122.93877492753	176.666184728685	1544.81088677429	859.091747367894	141.894267536593	1526.42500611182	1480.3816341933	191.346349465481	2121.26758797227	1283.6005725419	139.963143752539	2303.46921803602	779.615275727448	153	1101.59734796779	626.017392228235	128.974893555147	1394.13124342007	948.506034725796	141.693656354086	1875.34742739907	343.709719193501	127.457449812762	881.308423462105	681.198076274887	189.472437569062	1125.0223115615
291.67295351435	141.432512284022	592.763949305943	1441.0038197642	253.140185157188	2057.13669258809	664.596053454129	141.423828611704	1281.35569682179	1002.49802021781	165.678999896329	1428.93662048594	1057.74403959248	130.788875195918	2374.56249175692	1040.15186394774	154.227527558715	1556.57714967696	616.855193501483	128.531071531859	1114.03577325968	1122.83667313735	176.673310471488	1544.01407322465	860.075956335023	141.916269102915	1525.63210061059	1480.67450200153	191.402863380256	2120.04066379208	1283.93089998545	139.977622469994	2300.63853942672	779.245173423584	153	1100.25475261864	625.899173074028	128.95927654881	1392.70902560083	948.183930203816	141.6629586497	1873.96623218457	343.498865536648	127.434101226838	880.133923350765	680.885821994005	189.470848709501	1123.87412608692
291.683140032737	141.443751265365	592.261562751133	1440.92399575643	253.272066934005	2056.32742580152	664.619257854111	141.447610962146	1280.46064299773	1002.33986906661	165.700420588885	1427.75205949707	1057.82809414232	130.791578693315	2373.60597916295	1039.96043097233	154.229292866068	1555.86960284309	617.293853049278	128.528941405211	1113.46644605	1122.90137091815	176.688212487453	1543.78337662073	861.108366723679	141.938843073884	1524.99490169503	1481.24715495961	191.47621125235	2119.44223215173	1284.4347963296	139.977622469994	2298.34018015856	779.062405081545	153	1099.31198138968	625.819246443993	128.938843073884	1391.68479740703	947.965255608158	141.636809557488	1873.14515599299	343.291934056487	127.424624078079	879.169809006984	680.609420366498	189.458838948916	1123.04497177733
291.704467453277	141.435059864902	591.903885526814	1440.84393396793	253.372046659142	2056.06480201017	664.632987201684	141.461755031374	1279.90677458934	1002.18479869784	165.726657594475	1426.97492450414	1057.99256407789	130.787303629753	2373.40161361361	1039.95478238855	154.228056615462	1555.87879749586	617.69654717779	128.535561267934	1113.12711346986	1123.10120497886	176.708222984919	1544.15526080749	862.148337518519	141.95927654881	1524.6349290085	1482.0580157866	191.559317772215	2119.56583523128	1285.09667386212	139.963143752539	2296.87207207762	779.074794109012	153	1098.87898937392	625.805567492906	128.917596325812	1391.2211745174	947.875258985614	141.622755080325	1872.9838116188	343.104699105415	127.432627943446	878.498383018294	680.401653599203	189.450402165405	1122.63046445017
291.736764131213	141.407673259252	591.72375320496	1440.82520618379	253.453383289606	2056.44332105274	664.647805390556	141.467764820332	1279.75020374798	1002.04393033255	165.756140503099	1426.64394368301	1058.20985723496	130.778872118898	2373.92594333775	1040.08459425848	154.220957065105	1556.5511639263	618.032457093939	128.543162419763	1113.02788397323	1123.37871931381	176.727098737845	1545.05803123425	863.144548710485	141.976220778044	1524.61346321986	1483.01682588372	191.641183100288	2120.37541000826	1285.86018825791	139.934170103957	2296.38192667168	779.250635596608	153	1098.97446852899	625.869329494802	128.898917788843	1391.4075199779	947.91296138356	141.62583724118	1873.48637707102	342.947085824029	127.455842973125	878.170917916636	680.278605931353	189.453322917095	1122.67427709286
291.781697380689	141.364784726353	591.731115216603	1440.92605958244	253.521584734594	2057.46477975827	664.681767914095	141.466405283625	1279.99507142738	1001.94106896573	165.785287608929	1426.74342555044	1058.44989783441	130.76940610348	2375.02986397441	1040.2900880922	154.206840867009	1557.7343410066	618.280944125415	128.546516379162	1113.13421162285	1123.67299657454	176.737729165017	1546.33718188632	864.041462672602	141.986922974495	1524.92210020318	1484.00425488794	191.710157208385	2121.72155445046	1286.64316915462	139.892142147546	2296.8425616993	779.529719588108	153	1099.52620510139	626.005211300878	128.886102621199	1392.2504282243	948.05587117823	141.647343809286	1874.56971799497	342.82154033059	127.491658148111	878.20183380873	680.23925224712	189.471760585565	1123.16251784893
291.838966113714	141.312992763535	591.914583567407	1441.19017018989	253.579142143102	2059.05759195193	664.75657195009	141.459360764754	1280.6044218859	1001.90330457414	165.811065696255	1427.22142154184	1058.69784182743	130.761648272924	2376.49404313681	1040.52781183856	154.188131330422	1559.23502661108	618.442964973922	128.543162419763	1113.38732850282	1123.94539182789	176.735160953913	1547.80876360477	864.788235847037	141.990699495499	1525.50115476596	1484.89798046448	191.757809393935	2123.39703462958	1287.35912392925	139.840039344837	2298.09393659602	779.839906830645	153	1100.40826384851	626.198897336503	128.88021305943	1393.66778570888	948.270005795778	141.686304594374	1876.07607072054	342.726850545505	127.53302405645	878.562180613859	680.270611232094	189.503254290177	1124.02597727586
291.907585430596	141.259738361099	592.246084382179	1441.64111492634	253.625321391544	2061.09503893269	664.890215130779	141.44760783366	1281.51127749975	1001.95454408064	165.830005731946	1428.00498843411	1058.95598494386	130.759226430094	2378.09206217413	1040.7800139557	154.17156235945	1560.87196772061	618.537467261129	128.535561267934	1113.72486172365	1124.18875738716	176.719480430562	1549.30558393213	865.351215167509	141.986922974495	1526.26528210539	1485.60340856459	191.779403875419	2125.2007168073	1287.94100647829	139.779657867194	2299.9123432785	780.116632674805	153	1101.48326048305	626.435528118119	128.881452368949	1395.52170604058	948.526958380232	141.737891768644	1877.82686553178	342.659804057619	127.574673279829	879.193789337911	680.356897906021	189.543446636161	1125.16301552
291.984382993663	141.212713525701	592.683435748734	1442.27183577563	253.660312069993	2063.41354252062	665.090741799818	141.432255454531	1282.62450514937	1002.10540003999	165.840467059898	1429.00516123297	1059.2424562407	130.762975495821	2379.64392068046	1041.05395694255	154.16463362509	1562.51394595869	618.599848493571	128.530268628108	1114.10010121185	1124.42557415832	176.695841094557	1550.71612380453	865.72567504959	141.976220778044	1527.13477581018	1486.07850163235	191.775964386752	2126.99101096135	1288.36315950791	139.715867484646	2302.07635381415	780.320795065887	153	1102.64017810237	626.707365976301	128.887167986235	1397.65152951633	948.812562527329	141.794382965743	1879.66159337691	342.618463636304	127.612659884443	880.020906721099	680.487174029268	189.585529136823	1126.46422146626
292.06460192738	141.176114328927	593.180421002723	1443.05892013231	253.684877040245	2065.85184622751	665.355336670257	141.413667889854	1283.84864745035	1002.3521979708	165.841273092134	1430.13719124934	1059.5797560689	130.772729132834	2381.04290110378	1041.3670425432	154.174242931655	1564.08954038232	618.669076059591	128.534394561212	1114.48819975399	1124.69258808266	176.672947952129	1551.99427074689	865.931650979472	141.95927654881	1528.0529161457	1486.32694691439	191.75446554679	2128.70202138671	1288.63126245726	139.652685500715	2304.40494778103	780.439410028885	153	1103.80864387799	627.01361355499	128.893817103855	1399.90604627249	949.126987439264	141.847116177518	1881.46567807868	342.602861747595	127.644956562379	880.965512853828	680.654013340717	189.622392891232	1127.83334277433
292.144437390464	141.151556599585	593.694411326686	1443.96676662441	253.701556711844	2068.27537423045	665.673104427299	141.391619916719	1285.09637734072	1002.68208611948	165.832934232258	1431.32637735994	1059.98441651531	130.787298892152	2382.26453111973	1041.73706312344	154.204029853383	1565.58103229873	618.779676271217	128.552287349885	1114.88729450282	1125.02735634779	176.659373228634	1553.15626068981	866.016148193573	141.938843073884	1528.98772572477	1486.40277039067	191.724902656517	2130.33331970961	1288.78597610361	139.595652829015	2306.76213680558	780.487592736164	153	1104.95417721124	627.356633236239	128.898119622694	1402.16909354574	949.47764258325	141.885586771564	1883.18696419938	342.613130666763	127.670576181988	881.96144764366	680.852687644826	189.648562267385	1129.20159369184
292.221407497842	141.137938458618	594.1901641027	1444.96280094993	253.714112546688	2070.59324248572	666.029682228051	141.367495882321	1286.29964778054	1003.07716620291	165.816949695803	1432.51536538533	1060.45668728539	130.802656078455	2383.35047583594	1042.17076335622	154.251848255272	1567.00747894699	618.950363957638	128.584353459144	1115.31620189287	1125.45155963511	176.661910440119	1554.25942846984	866.0358680712	141.917596325812	1529.93338664436	1486.38347685932	191.697966483604	2131.92818922632	1288.87842634815	139.5490612709	2309.05475720335	780.495819640673	153	1106.06552370073	627.738610914875	128.898119622694	1404.36765731941	949.872696532344	141.90136999424	1884.82517259786	342.649095272475	127.688408928415	882.959834470737	681.078022135431	189.658048843454	1130.53010555271
292.295794404584	141.130297433659	594.646509239992	1446.0223543884	253.726657594475	2072.76518872641	666.412488548865	141.34116037988	1287.4185492517	1003.52384580889	165.79571018864	1433.66970023954	1060.9833572654	130.815622472906	2384.39902359948	1042.66527346538	154.3112584558	1568.41665445359	619.185269340414	128.623709814306	1115.81078263576	1125.9706395217	176.683912006441	1555.38809622144	866.047762243759	141.898917788843	1530.89432545024	1486.35218986269	191.682610975989	2133.53380055865	1288.96145515602	139.516598376625	2311.21029952236	780.500573145126	153	1107.13564099236	628.150913387389	128.893817103856	1406.45588584535	950.306759702681	141.889340574892	1886.3999993007	342.705586469574	127.69814020689	883.923459049158	681.317999217875	189.649796014682	1131.79788077458
292.368527188825	141.124437192821	595.052089186813	1447.12362647178	253.743775768192	2074.784048208	666.808579057171	141.314065856715	1288.43378849413	1004.00591163786	165.77270850261	1434.76625986067	1061.53900568475	130.822665313089	2385.52839603588	1043.20958146276	154.372403033636	1569.86641545726	619.474358861625	128.662425041186	1116.41634100781	1126.57198324968	176.723863483927	1556.62390409059	866.095221433437	141.886102621199	1531.88313813731	1486.37670901356	191.685239229338	2135.18559121582	1289.07730801454	139.499627954947	2313.18560176234	780.535984718968	153	1108.16009611983	628.57923005648	128.887167986235	1408.40889155348	950.764841330872	141.848186349728	1887.93342031958	342.775269472804	127.697777687531	884.826695248218	681.558179749371	189.623994168647	1132.9935083176
292.440682227785	141.115224601697	595.400450537208	1448.24473878829	253.766053822768	2076.6499327908	667.203822805812	141.287214676209	1289.33253048031	1004.5029573952	165.749379713391	1435.77996939786	1062.09754519567	130.820910375131	2386.83773349058	1043.78775614451	154.424357668451	1571.40122820591	619.79974658469	128.689008743086	1117.17150047614	1127.22985350857	176.774463440568	1558.02028416155	866.202171677805	141.881540282327	1532.91305926735	1486.49573066573	191.705158754513	2136.89130817275	1289.25108390593	139.498873136697	2314.96428635997	780.62377749732	153	1109.13200411452	629.000816935483	128.881452368949	1410.20925756942	951.219923283164	141.782636222048	1889.43316590694	342.845754962123	127.687536293213	885.651950784665	681.77914757978	189.585007946162	1134.10930712183
292.510096789847	141.101082211157	595.688702657694	1449.35026872174	253.791743996716	2078.35044038873	667.579589920907	141.262370089217	1290.0988989739	1004.98559507948	165.726569681097	1436.67523927831	1062.63309875002	130.811065696255	2388.37236024872	1044.37710475128	154.45962796364	1573.03062176403	620.138986668199	128.697700073976	1118.09387742522	1127.90811028359	176.826682702592	1559.58186238656	866.366289338433	141.8861026212	1533.98495434736	1486.70759976614	191.738319483705	2138.62052820175	1289.48260052546	139.511139658403	2316.54274953786	780.767656257729	152.998672777103	1110.03710116611	629.391673074459	128.88021305943	1411.8410065837	951.641645776601	141.700229488947	1890.88567022674	342.905746191972	127.667932811011	886.387559790785	681.963979958801	189.537990351674	1135.13693950418
292.57457980423	141.082403674188	595.916496947477	1450.39094941599	253.808747218236	2079.86144501837	667.917818608152	141.240609391394	1290.72103799923	1005.42046357309	165.703684404755	1437.41593344164	1063.12326738644	130.79571018864	2390.11385875026	1044.95140343969	154.474031852903	1574.72436527213	620.469288125053	128.685133939309	1119.1742116917	1128.56600547933	176.86864254233	1561.26760450202	866.562910921425	141.898917788843	1535.08448587669	1486.97545673607	191.775007614943	2140.31178797318	1289.74726573084	139.533013687054	2317.91888981904	780.952789023462	152.995349747749	1110.85388811386	629.733795450984	128.886102621199	1413.28156009831	952.005533658123	141.611703112635	1892.25312320579	342.946187105451	127.64186959435	887.024337452958	682.101114689048	189.488575987256	1136.06360485371
292.62855650752	141.061156926116	596.085470811883	1451.29711335844	253.797052225918	2081.14262716703	668.201009022819	141.223939971726	1291.18783877053	1005.77386298882	165.678313402267	1437.97180512277	1063.55483505854	130.779919725055	2391.98450005178	1045.48734333127	154.467502962471	1576.42245394735	620.773345480468	128.655254732905	1120.37789572277	1129.17142220536	176.889340574892	1563.00755431291	866.750444208945	141.917596325812	1536.18061761131	1487.23538398154	191.803183097375	2141.88938626526	1290.00162890424	139.559771333438	2319.08169938011	781.148597589616	152.988250197392	1111.55460472615	630.0155393791	128.897590565946	1414.50974389627	952.295120896437	141.525706289236	1893.48722957998	342.963672809286	127.611982729374	887.558167879029	682.186822121811	189.440770141163	1136.87746722985
292.668476985386	141.04072345119	596.203793232504	1451.9900232401	253.723536171958	2082.15526186473	668.419236324367	141.212983645558	1291.50894170331	1006.0221506126	165.648733083382	1438.33739255097	1063.91641219377	130.768708268562	2393.87112705675	1045.96372632409	154.44428961148	1578.05299068075	621.03626698497	128.615038697784	1121.64909206194	1129.70055806872	176.882241024534	1564.72593322436	866.88599561712	141.938843073884	1537.22938004079	1487.4261251405	191.811239419541	2143.28613349617	1290.20115406676	139.586336847747	2320.01801485607	781.321712577053	152.974893555147	1112.11247274627	630.236936994781	128.912946073561	1415.5023036557	952.509862153588	141.449999887741	1894.53095645414	342.959820723185	127.581007712114	887.984088512458	682.225441183948	189.397526633943	1137.56217063155
292.690478551708	141.023779221956	596.286483985538	1452.38548178311	253.54998091334	2082.88113697505	668.570392297865	141.208134031374	1291.71887338952	1006.15756291814	165.613175562508	1438.54703988284	1064.20097746048	130.767554990148	2395.66927228675	1046.37025448218	154.410227695764	1579.56474289297	621.248461435335	128.57564706915	1122.93138786812	1130.14526209713	176.844863320374	1566.37407052552	866.935835312489	141.957949325913	1538.18700160073	1487.50624277326	191.790783226939	2144.4651737268	1290.31398659563	139.608764450442	2320.72464470564	781.443923088767	152.953299073663	1112.51189780933	630.408919203206	128.927093271276	1416.25501417772	952.662529903384	141.388029688479	1895.34399125281	342.942347437204	127.552386604119	888.300416939613	682.228685589291	189.359600214272	1138.10907708964
292.693046762812	141.011749802608	596.353809690324	1452.42041826813	253.238562912826	2083.33140306946	668.660470296566	141.208312713458	1291.87660519238	1006.18897690989	165.570290088522	1438.66828006107	1064.40964373738	130.777803625376	2397.30323387333	1046.71085324625	154.371088159019	1580.93793774479	621.40747345259	128.546668682967	1124.17724576574	1130.5155240827	176.779981776254	1567.94035289171	866.884091900652	141.971570525793	1539.02982481999	1487.46447380419	191.738680424229	2145.44536339989	1290.32712566426	139.622265423134	2321.24294631911	781.498944319354	152.922443019025	1112.76194958496	630.550732327659	128.935497326854	1416.794641493	952.77726899039	141.339687930007	1895.9169907792	342.920848597242	127.529151290499	888.512802966217	682.21359402699	189.326610904502	1138.52399876464
292.676095292669	141.004650252251	596.427351447719	1452.06984406184	252.763930826689	2083.56236017799	668.701728001395	141.213242582449	1292.05760975536	1006.13837490923	165.518506407647	1438.79284707821	1064.54454933589	130.797721471864	2398.7440436254	1046.9950324211	154.331173243374	1582.18144306758	621.512259513584	128.534488036812	1125.3554909422	1130.82735172106	176.695579236696	1569.44469255497	866.733076571692	141.976500394784	1539.74767954317	1487.32058145223	191.656727182778	2146.27429378444	1290.24756305142	139.623992489959	2321.63754481797	781.482005586308	152.88074007835	1112.88527254776	630.685127557251	128.935497326854	1417.1845821885	952.878674910212	141.301771879731	1896.2747820181	342.903992281386	127.512355209212	888.633734369407	682.196551569994	189.297121627481	1138.82996095334
292.640938397881	141.001327222897	596.528902022063	1451.3620553807	252.124133510565	2083.68028834882	668.710280473705	141.221755231254	1292.34444331574	1006.0381251255	165.458671142206	1439.02282827977	1064.61542920891	130.821360807868	2399.99484046674	1047.23820018186	154.292559288608	1583.31392511984	621.567006392692	128.540263492758	1126.44790651364	1131.10094782139	176.599953310026	1570.91278814799	866.503398317377	141.971570525793	1540.36395127305	1487.11870320664	191.553252383689	2147.02990616814	1290.09786419472	139.613291972196	2322.00988910934	781.401243885552	152.829764863447	1112.9205060478	630.835715742169	128.925766048379	1417.52903720548	952.987594212987	141.269301257313	1896.48229684591	342.897852423808	127.503409679033	888.686646528351	682.192766327103	189.267974034416	1139.07395146354
292.59117156245	141	596.676676877614	1450.39244756786	251.346238109078	2083.83870622577	668.706664877641	141.232089897587	1292.81674582953	1005.92834108898	165.392425948955	1439.45090779685	1064.6392445578	130.841343850058	2401.08747403935	1047.45754548759	154.255158866772	1584.3537874352	621.578509834153	128.559768204952	1127.44944619263	1131.35380883064	176.50192706728	1572.36431985671	866.220152310262	141.957949325913	1540.90957626762	1486.90323367266	191.43811569537	2147.77080484386	1289.90112015832	139.592745166442	2322.44208690674	781.26709771781	152.771145218388	1112.89688896399	631.019837411232	128.906968598413	1417.9424166666	953.11133454235	141.237269206585	1896.60959008809	342.903568041094	127.500605406604	888.696422160648	682.212886192791	189.237269206585	1139.30989533904
292.530011507848	141.001327222897	596.884650254871	1449.30748234087	250.490101502208	2084.21507733922	668.711695255625	141.245186719798	1293.53671817672	1005.8469343727	165.324615098045	1440.14377789273	1064.6401190947	130.850561178782	2402.05456697179	1047.67128664325	154.218590669617	1585.29827557569	621.557777471707	128.583792395353	1128.35773496157	1131.60028300043	176.407949213654	1573.7868476842	865.909878980708	141.938843073884	1541.42754864373	1486.70877587582	191.320895287215	2148.53001673358	1289.6758038731	139.567744545469	2322.99745622996	781.090563293398	152.709550207816	1112.83714633441	631.247465439121	128.881190511088	1418.53073888043	953.244730724839	141.202278528136	1896.72254845315	342.918923548709	127.500721816293	888.689470026717	682.263617064427	189.202278528136	1139.59320647087
292.464011017004	141.004650252251	597.161749672454	1448.28115399144	249.636493485689	2084.98396003896	668.745054432035	141.260615151259	1294.54053700128	1005.82488392892	165.260519371794	1441.13091968695	1064.64569138896	130.844319145999	2402.92780086528	1047.89597905978	154.181031780064	1586.12896319131	621.517556629413	128.602869392485	1129.17255106125	1131.84726133763	176.320895287215	1575.13839915986	865.594748583578	141.917596325812	1541.95736582865	1486.5514728627	191.208063273451	2149.29964960597	1289.43354780884	139.544651887148	2323.69534794982	780.881690261466	152.64881625916	1112.74748077317	631.520741893896	128.850573596635	1419.36520465072	953.37250252423	141.16356636017	1896.8587910483	342.937515850987	127.499913350321	888.685225840024	682.347945787148	189.16356636017	1139.96448178958
292.397078634942	141.011749802608	597.510611583285	1447.48145846026	248.878164149662	2086.27494035999	668.820174093414	141.279835509111	1295.83005790527	1005.87735200577	165.206549909413	1442.39680190625	1064.68374736894	130.822032450341	2403.71397305172	1048.14494209157	154.143132885243	1586.8078497198	621.471822498821	128.607838816195	1129.88534487615	1132.09400550477	176.239556978063	1576.34792103562	865.290303524175	141.898917788843	1542.5306495134	1486.42498958858	191.101880377306	2150.03613871654	1289.17883830319	139.53107709408	2324.51279863176	780.648135134967	152.593024575666	1112.62364966799	631.83390051463	128.817037609181	1420.46405073895	953.473483927551	141.123127125378	1897.01917828832	342.954626296559	127.494744341145	888.695895453046	682.466037102191	189.123127125378	1140.44056335651
292.333955157266	141.023779221956	597.928669199933	1447.03853502568	248.299567429504	2088.14864080752	668.941710063437	141.30352681769	1297.37473349054	1005.99900151414	165.166367932825	1443.88793940653	1064.77727452379	130.787037034291	2404.40185438389	1048.43003218879	154.106182896144	1587.28937295764	621.435052220012	128.595290639922	1130.48213112745	1132.33602101088	176.159183168863	1577.33291506735	865.007538059596	141.886102621199	1543.16272133631	1486.30628792979	191	2150.67307561401	1288.90868747901	139.530356541486	2325.38201808169	780.394046546775	152.544384826204	1112.44814511609	632.173459883134	128.784222243893	1421.79066632029	953.525945854154	141.084936148072	1897.17292616693	342.964470975436	127.484205351745	888.727565704399	682.611709968267	189.084936148072	1141.01203293279
292.278531003891	141.04072345119	598.406562732433	1447.0155090405	247.961831165257	2090.57480027342	669.104007804179	141.331955516901	1299.11057767569	1006.16358351562	165.140854403134	1445.51658714792	1064.93506407037	130.743513910331	2404.97017071027	1048.75462524935	154.072906728724	1587.53838387473	621.41691067152	128.56535256096	1130.94771310641	1132.56123244155	176.073173927611	1578.02495560116	864.75565868317	141.881540282327	1543.84941994542	1486.16630946456	190.898119622694	2151.13819087029	1288.62173233331	139.545030154697	2326.19876056184	780.12453888079	152.502740340425	1112.19560767318	632.518414660361	128.755357188539	1423.25716510205	953.508842787434	141.052473253798	1897.26186831967	342.964470975436	127.469207877366	888.780739853833	682.772911799205	189.052473253798	1141.64135591154
292.232719285566	141.061156926116	598.926724730703	1447.4007236237	247.888365806477	2093.4344436773	669.291000822191	141.364418411175	1300.95215855939	1006.33005319582	165.12829132738	1447.17774562163	1065.15412132076	130.697162755233	2405.41260250622	1049.11803570396	154.044046480544	1587.54965898839	621.424280361682	128.522116712312	1131.27818933776	1132.75730307391	175.975422611894	1578.39695820739	864.54425938077	141.8861026212	1544.567128666	1485.98369537381	190.791936726549	2151.37394472856	1288.32014535013	139.573363987382	2326.83844595736	779.84581660225	152.465765954962	1111.83760059082	632.844134816103	128.734110440467	1424.74071323954	953.410716572594	141.028429474207	1897.22058273753	342.954626296559	127.452502788317	888.8534413564	682.930921543656	189.028429474207	1142.26863577212
292.197361077	141.083730897085	599.464095041463	1448.11581007498	248.062788812899	2096.53275295224	669.480000236049	141.396897245964	1302.79663864685	1006.45307461532	165.124454348275	1448.76027813186	1065.41898473131	130.654012723612	2405.74202877525	1049.51367208266	154.020456192602	1587.35733730606	621.459708182502	128.473233035438	1131.48149180418	1132.91580878894	175.86259059813	1578.47393304477	864.387469924729	141.898917788843	1545.27201549528	1485.75866312198	190.679104712785	2151.34676351997	1288.02261632576	139.613030335531	2327.17326330439	779.571632793571	152.429806086851	1111.34819138393	633.124766708944	128.72253626103	1426.10231115084	953.228487889129	141.013077025505	1896.98807948295	342.937515850987	127.437693492905	888.939962845228	683.062536551706	189.013077025505	1142.81994465363
292.171990074511	141.105732463407	599.984816552148	1449.03530906872	248.432820865651	2099.63205348242	669.644248120852	141.424347368629	1304.53260319541	1006.49192167986	165.124861433113	1450.15642918219	1065.70637457136	130.617680587782	2405.98832674629	1049.92814036938	153.998672777103	1587.02931143823	621.521151678507	128.426220665785	1131.5777026624	1133.03403970044	175.73561138665	1578.32782794687	864.30046491195	141.917596325812	1545.91469687739	1485.5157975107	190.560557081733	2151.06924687987	1287.75954313899	139.659876488845	2327.11812056429	779.320294623863	152.39110428828	1110.72038909517	633.336397492959	128.720941977189	1427.21783277385	952.96968758013	141.003323029354	1896.53221008049	342.916269102915	127.42795497352	889.034230111243	683.143966436573	189.004650252251	1143.22628277911
292.154882687852	141.125647181409	600.45056044075	1450.01781858956	248.923170605041	2102.48798307836	669.759450877386	141.441843372286	1306.04974887133	1006.42220043106	165.125647181409	1451.27262908509	1065.99180290335	130.59230477812	2406.20356890533	1050.34552968484	153.976220778044	1586.65934426504	621.602782556105	128.388029688479	1131.59608120607	1133.11710369439	175.599953310026	1578.06848236348	864.297849006882	141.938843073884	1546.4489693799	1485.30337842802	190.440770141163	2150.59756513923	1287.56925650875	139.709983485098	2326.65356254379	779.113753796302	152.347054679251	1109.97534491508	633.464161715829	128.727463626712	1427.99878536408	952.654526228634	140.996676970646	1895.85856479288	342.894267536593	127.426495475351	889.129101027339	683.155912680144	189.001327222897	1143.43635557922
292.142326853007	141.142238939629	600.824888404554	1450.93732488273	249.452727676798	2104.89857461052	669.805585445523	141.444272456025	1307.2546076915	1006.23729256982	165.123109969924	1452.04269233195	1066.25231082875	130.580302883622	2406.4312264007	1050.74574036486	153.947526746202	1586.33629725365	621.694288120789	128.363467151963	1131.56122344409	1133.17341341777	175.46454936312	1577.80737992639	864.38541617765	141.95927654881	1546.84256391187	1485.17555762226	190.326872762363	2150.02617698683	1287.48335763247	139.75911579904	2325.8418090546	778.972025401227	152.297098909805	1109.16412851462	633.503406786887	128.73774158287	1428.42122391462	952.31144362548	140.988250197392	1895.02703289719	342.874352818591	127.43305362068	889.224578048678	683.091422424852	189	1143.43942564184
292.131536743178	141.155948052887	601.0791271993	1451.70660985231	249.951680889611	2106.7334599928	669.773576112472	141.432238229504	1308.08147361815	1005.95098155731	165.115224601697	1452.43184848904	1066.47266706074	130.583358852032	2406.70462009725	1051.10699218459	153.90908637678	1586.13119196234	621.783416477695	128.352917910633	1131.48851520867	1133.2131845913	175.338622564971	1577.63956550286	864.557156997988	141.976220778044	1547.0891450747	1485.1798615755	190.225790551206	2149.47742688643	1287.51497932938	139.805287806573	2324.82444817532	778.90660373132	152.243001979326	1108.36507926427	633.460226589166	128.747361189258	1428.53483947118	951.972451264296	140.976220778044	1894.15339880085	342.857761060371	127.446542468624	889.332702844611	682.954631903623	189	1143.27637601893
292.118547631051	141.166889389524	601.202404510452	1452.28616683693	250.373282424298	2107.95993487788	669.665835746704	141.407242485278	1308.51075469982	1005.59213480017	165.101082211157	1452.45114988864	1066.64483741755	130.602058019224	2407.03825257617	1051.41244389214	153.860472819763	1586.08283994869	621.854575647314	128.355564628282	1131.38182912276	1133.24442260116	175.230440803457	1577.62505859714	864.792111698405	141.988250197392	1547.21339738834	1485.34309468582	190.143386877018	2149.08312391951	1287.65108298851	139.845923344385	2323.80215120739	778.918479877136	152.188672805023	1107.67147555407	633.347539973948	128.751904576595	1428.45160420666	951.666382181857	140.95927654881	1893.3837174629	342.84537917001	127.462423974073	889.475056442941	682.763693393483	189	1143.03165267377
292.102409434054	141.176557150985	601.207839859683	1452.68549973009	250.697409699004	2108.64355860385	669.499729020425	141.374962962797	1308.58342019557	1005.20306490251	165.082403674188	1452.16433926005	1066.76856144493	130.635594006678	2407.44353077381	1051.65634510788	153.802231838163	1586.20944798186	621.892993075527	128.365046584214	1131.24275877902	1133.27323833349	175.144714099915	1577.79546980862	865.058624452232	141.995349747749	1547.26769657297	1485.66517911759	190.082229950902	2148.96408534808	1287.85371043522	139.879863288191	2322.99299315683	778.997473325551	152.139527180237	1107.17530134794	633.184350909868	128.748581547242	1428.32761657663	951.416409311194	140.938843073884	1892.87837775833	342.837760862727	127.474293710764	889.683106498648	682.545625814411	189	1142.82297024301
292.082403674188	141.186018359229	601.13113256563	1452.94452288884	250.92896784007	2108.92691610784	669.301545373813	141.341328762142	1308.3960622049	1004.82800493345	165.061156926116	1451.68334631238	1066.85259061679	130.681654342123	2407.94810603682	1051.8511408358	153.739196273865	1586.53372112811	621.888822421391	128.377594690914	1131.08758325488	1133.30946345534	175.082229950902	1578.17402873164	865.318981407967	141.998672777103	1547.33126704929	1486.12101563726	190.041506499712	2149.2273289548	1288.07189791953	139.905641375516	2322.61666380382	779.128338613824	152.101336202931	1106.96200225214	632.990673303054	128.734284163753	1428.33513535223	951.235692099	140.917596325812	1892.78556321348	342.835192651623	127.475873025551	889.991048438024	682.33114414364	189	1142.77820813012
292.061156926116	141.196671504077	601.025038831432	1453.12013539811	251.088082354478	2108.99362060598	669.103997504357	141.31338865202	1308.08841694601	1004.50573346838	165.04072345119	1451.15144280683	1066.90575100978	130.73523732285	2408.5978657219	1052.02259402918	153.678577693864	1587.08837243084	621.835110345308	128.389624110262	1130.9491088218	1133.36185424413	175.041506499712	1578.78331632142	865.536306905886	142	1547.49135193975	1486.66834576132	190.017727277756	2149.94685278016	1288.25530366626	139.921115796128	2322.85372956243	779.295666018232	152.077579698651	1107.09765300968	632.784758552182	128.709312108664	1428.62860958677	951.128239172023	140.898917788843	1893.21266810174	342.837760862727	127.463871131053	890.426196565596	682.148313838719	189	1143.00708808217
292.04072345119	141.208046117996	600.951742062449	1453.26647184361	251.201709834619	2109.03570737911	668.93787513279	141.293876211683	1307.82592175327	1004.26579523527	165.023779221956	1450.73116868839	1066.93882054294	130.79105993639	2409.46671522202	1052.21061435714	153.628644642094	1587.93279961066	621.731022430551	128.399792560257	1130.88593186502	1133.44394171937	175.017727277756	1579.66392107903	865.683514444605	142	1547.83231168248	1487.26232999794	190.005977475148	2151.1602898332	1288.37095430614	139.922420301349	2323.83130515114	779.491402345092	152.069152925397	1107.62693287496	632.583644864511	128.673663150017	1429.32162134029	951.08962625829	140.8861026212	1894.21205889699	342.84537917001	127.438644752117	891.002098444552	682.01661471311	189	1143.58227002563
292.025106444853	141.219800658205	600.967900139407	1453.42959417391	251.293584829306	2109.20762499731	668.827827536226	141.284303331351	1307.76187227061	1004.12309677298	165.011749802608	1450.56583280944	1066.96003636097	130.841343850058	2410.64146985125	1052.45564929987	153.596972185825	1589.14110393589	621.581388179726	128.410744079251	1130.97404335834	1133.57139957745	175.005977475148	1580.86924121487	865.744517710179	142	1548.42459049836	1487.85894168317	190.001327222897	2152.8729643248	1288.40843362431	139.90574062975	2325.62202269625	779.715878229198	152.074233951621	1108.57472229451	632.402615325859	128.631355576866	1430.46801859286	951.113060254284	140.881540282327	1895.7690395539	342.857761060371	127.407146240331	891.71199428231	681.946484336056	189	1144.52322396724
292.017727277756	141.23059389652	601.111897141549	1453.64032630894	251.379397767538	2109.59697064888	668.78491453739	141.283500427601	1308.00258125798	1004.07706859225	165.004650252251	1450.74680066893	1066.96760397473	130.879534827363	2412.19528826043	1052.7794576069	153.588719357054	1590.77415539357	621.389848671988	128.42489900511	1131.28843486701	1133.75173276382	175.001327222897	1582.4468496354	865.713039123194	142	1549.30695455133	1488.41646913219	190	2155.04379603311	1288.37608719025	139.86864254233	2328.22526817265	779.970345534013	152.087053926439	1109.93823088208	632.255627772205	128.587659333043	1432.06505239153	951.189932265925	140.8861026212	1897.81216439618	342.874352818591	127.376546946815	892.534160824554	681.937709829389	188.998672777103	1145.79911405977
292.022377530006	141.239678949973	601.398695443552	1453.91535424685	251.463766314598	2110.22074027754	668.808551439659	141.287572709444	1308.59132126877	1004.11613068396	165.001327222897	1451.30044249869	1066.95056762837	130.900825819865	2414.1529207177	1053.17266069307	153.604076543357	1592.84061405232	621.158726681284	128.444093170517	1131.87900836878	1133.97904073731	175	1584.40671689617	865.594128651734	142	1550.48182142927	1488.90121637135	190	2157.58653720016	1288.29639608992	139.81160987063	2331.56443267909	780.256898796152	152.102409434054	1111.68115681305	632.153641246039	128.548092081238	1434.05364044826	951.309641050303	140.898917788843	1900.22130992459	342.894267536593	127.355841603771	893.432063089222	681.978755151812	188.994022524852	1147.3319677366
292.042833722609	141.245423822156	601.818242363526	1454.26300546337	251.541502581081	2111.03507716422	668.88843519576	141.291326582344	1309.50197458782	1004.22452528685	165	1452.18338045076	1066.89197088682	130.903108901633	2416.46243064139	1053.59581002912	153.638538303001	1595.26947709705	620.887686298431	128.469630389344	1132.7479375749	1134.23351430721	175	1586.69708292989	865.396074339475	142	1551.9083726965	1489.27713977899	190	2160.36464562066	1288.18944193793	139.738934416004	2335.4695830077	780.564315314049	152.1138973788	1113.7196799241	632.101960645794	128.51833268436	1436.32159074821	951.456863756274	140.917596325812	1902.82997543722	342.914941880018	127.349324761422	894.355075022523	682.047439171776	188.982272722244	1149.00320188033
292.080902728005	141.248774306787	602.339680915679	1454.67902412861	251.601319866447	2111.94913664485	669.007560993684	141.291781752682	1310.64681911333	1004.38559234274	165	1453.2948395102	1066.77382601237	130.888119245448	2418.99236467916	1053.98601087468	153.682356984215	1597.90390807914	620.576044643423	128.500203128941	1133.84277720757	1134.48434174751	175	1589.19497878979	865.128321248757	142	1553.50807154925	1489.5068327444	190	2163.20027800273	1288.06305745551	139.659360810781	2339.68998098442	780.867122855638	152.118459717673	1115.92683600859	632.099209315665	128.503523388947	1438.71783496412	951.612624090478	140.938843073884	1905.44831174514	342.934192821633	127.358542090146	895.247562510976	682.115755331747	188.958493500288	1150.67216633394
292.138736624767	141.249722866226	602.9204971527	1455.14683810335	251.629495348879	2112.86188487362	669.148210852555	141.287100570386	1311.90592375455	1004.58260885159	165	1454.50746592414	1066.58166570811	130.857411289132	2421.56281765494	1054.27444724027	153.722534361145	1600.53314103396	620.224703257753	128.533420771892	1135.06873149144	1134.69503363426	175	1591.72469165326	864.800349834282	142	1555.17429673512	1489.55698004921	190	2165.8964057025	1287.91338347134	139.582031629135	2343.91535270209	781.129861969653	152.1138973788	1118.13849386855	632.135143475557	128.506839177392	1441.06196121587	951.750087449173	140.95927654881	1907.8728252344	342.947526746202	127.378799941901	896.047962853822	682.148819985419	188.916442826201	1152.18691239265
292.214040748598	141.248774306787	603.511489588337	1455.63474623027	251.614422516917	2113.66671701446	669.292209517369	141.277747955369	1313.14509700205	1004.79684264388	165	1455.68405756447	1066.31078854294	130.815622472906	2423.9697565185	1054.40509543912	153.747107197484	1602.92840358006	619.839244653456	128.565002186297	1136.30165940205	1134.8295772671	175	1594.08230079318	864.422347475887	142	1556.78387960676	1489.40422580962	190	2168.25482844676	1287.7307044619	139.517022616918	2347.8082937916	781.314915694017	152.101082211157	1120.17486477426	632.193740520404	128.529949456649	1443.16923902124	951.842985549921	140.974893555147	1909.91925241547	342.952441556088	127.402185148189	896.701605530327	682.115966981293	188.850635647835	1153.40749912381
292.30176631751	141.245423822156	604.062774424275	1456.10076068799	251.548063564127	2114.26006170707	669.422130987344	141.264552791862	1314.23538487365	1005.00767727962	165	1456.69861527587	1065.97230346261	130.766582879516	2426.03296769526	1054.35310598718	153.746305972422	1604.89475887867	619.434215520229	128.59117880336	1137.41653376298	1134.86635986535	174.998672777103	1596.07736370982	864.007907212489	141.998672777103	1558.22209966727	1489.04506090653	189.998672777103	2170.11950260856	1287.50694146788	139.469909868142	2351.06351339569	781.393522543313	152.082403674188	1121.87186055886	632.255537737746	128.572319302195	1444.8680366367	951.869589803574	140.983599945141	1911.43590552177	342.947526746202	127.4197026786	897.163676238444	681.993038800186	188.756482171038	1154.22088742293
292.394069214826	141.238351727076	604.529003264039	1456.49750103049	251.429515933075	2114.55425679817	669.523762885472	141.248774306787	1315.06779758271	1005.1912727886	165	1457.44914510549	1065.58519581562	130.714112546688	2427.62911982634	1054.12391772386	153.716806326005	1606.30720596577	619.028799925295	128.607400731739	1138.31122355081	1134.79638142233	174.995349747749	1597.56662823427	863.580923687655	141.995349747749	1559.39292156174	1488.50818988545	189.995349747749	2171.39209613634	1287.25201772907	139.44289553021	2353.44541079695	781.356471621292	152.061156926116	1123.10598275476	632.301780279669	128.630919995718	1446.02559456191	951.817810752035	140.983599945141	1912.33189838258	342.934192821633	127.423030445554	897.408312056331	681.769632417027	188.631620737925	1154.55853671195
292.480345654965	141.225943644269	604.87017728864	1456.78004172003	251.261928708634	2114.47256984192	669.584233317526	141.23059389652	1315.56045889937	1005.32448253857	164.998672777103	1457.86047579152	1065.17791050029	130.661631426803	2428.69409079547	1053.75544534535	153.660050212132	1607.12010863286	618.647599838888	128.609427537814	1138.91427449548	1134.62901900434	174.986922974495	1598.47128984155	863.174665426737	141.988250197392	1560.23883460103	1487.8509885737	189.988250197392	2172.05641294301	1286.99248263042	139.43260522577	2354.83034873953	781.214704939086	152.04072345119	1123.81718837495	632.318499146849	128.700491346808	1446.57042121515	951.688955046544	140.974893555147	1912.58980320517	342.914941880018	127.409005289322	897.432248637131	681.449675181913	188.476999907935	1154.4071723407
292.550544286634	141.209378078494	605.058923551361	1456.9201535512	251.053598236297	2113.96627507928	669.597942430784	141.210705301391	1315.66917408681	1005.39216111421	164.995349747749	1457.89626914324	1064.77763298095	130.613030335531	2429.21568342412	1053.30123768469	153.583553255168	1607.3572472465	618.315037321417	128.597587052481	1139.1895736804	1134.38748178217	174.971570525793	1598.77979775204	862.829959128688	141.976220778044	1560.73908100467	1487.15414412097	189.974893555147	2172.16791257417	1286.77183916444	139.433043240654	2355.20875401447	780.997674419014	152.023779221956	1124.0090427015	632.300880771833	128.771930966684	1446.49516947529	951.4952376318	140.957949325913	1912.25657413648	342.892940313696	127.377332833053	897.251475498125	681.051237181835	188.297383264146	1153.80536165531
292.596874761883	141.188917148291	605.084302619379	1456.91020922218	250.814033392148	2113.0314189221	669.56765953938	141.188917148291	1315.39431552148	1005.39208938483	164.986922974495	1457.56069857193	1064.40889730134	130.570281826527	2429.23203570347	1052.82274577012	153.495949592132	1607.09909570409	618.053242830975	128.572018834035	1139.13913187761	1134.10782616382	174.946199523305	1598.54923076988	862.589936459679	141.95927654881	1560.90826499336	1486.50631538359	189.953299073663	2171.83838396411	1286.63724798386	139.436102733458	2354.67741774638	780.745300725462	152.011749802608	1123.74354202773	632.250366294834	128.836693597807	1445.85756876066	951.258001757571	140.934192821633	1911.43215422728	342.869702566341	127.334499331641	896.896784655197	680.604772082481	188.101082211157	1152.83739623285
292.615728922023	141.167697855495	604.952634141369	1456.76157207965	250.553252383689	2111.70205664389	669.502256179423	141.167697855495	1314.77808642688	1005.33206931948	164.970243302896	1456.89380959998	1064.09032530815	130.536250840857	2428.81790229298	1052.37697319072	153.407949213654	1606.46049575689	617.878616996168	128.537469161013	1138.79938587092	1133.83215874957	174.910413599677	1597.88938311205	862.49174130082	141.938843073884	1560.78835118671	1485.98719621669	189.921115796128	2171.20650462798	1286.62918896192	139.435006075698	2353.41572420835	780.497676859373	152.004650252251	1123.12257293736	632.180362441457	128.885586771564	1444.77055486212	951.005931962297	140.905846523204	1910.24990004847	342.846011257763	127.289233200342	896.409961009928	680.147455704039	187.898917788843	1151.61782204298
292.61037602768	141.148640655069	604.688475227234	1456.50758296425	250.280809486	2110.05992860227	669.417996584729	141.148640655069	1313.90343963434	1005.23063199606	164.941549271054	1455.96911613407	1063.83407304378	130.511139658403	2428.06583791644	1052.00838926551	153.326872762363	1605.56166318892	617.802232030535	128.497710092312	1138.22949287232	1133.60114968752	174.863795849117	1596.93672066835	862.558028418298	141.917596325812	1560.43130698212	1485.64969210139	189.8760898261	2170.39989672024	1286.76790316831	139.425680153747	2351.6440201169	780.286389320841	152.001327222897	1122.261715166	632.108547425376	128.913119796848	1443.38573447101	950.768968260167	140.87381134399	1908.85448720608	342.821599948054	127.250241415635	895.838413658349	679.719667030112	187.702616735854	1150.27586952568
292.588203507418	141.134876927986	604.330981302799	1456.18882765344	250.004650252251	2108.21643580841	669.331283874428	141.134876927986	1312.87750912835	1005.10780485341	164.897336574172	1454.87424535733	1063.65105082715	130.494308759997	2427.08922979494	1051.74571233713	153.257284255818	1604.52227670329	617.832084507103	128.457714370397	1137.5087889063	1133.45227856222	174.808004165623	1595.84096042269	862.793928477759	141.898917788843	1559.89682510742	1485.51143255665	189.818015060839	2169.5187478397	1287.04963907367	139.409264018698	2349.59927525353	780.127805187512	152	1121.27580670021	632.054745769705	128.917770049098	1441.87971933387	950.574397810875	140.840728917759	1907.39473066757	342.797037411537	127.224463328309	895.233613181555	679.356444962804	187.523000092065	1148.94202935562
292.560028024986	141.12829132738	603.926408825672	1455.85340205255	249.733594762402	2106.3017144625	669.257657785767	141.12829132738	1311.81651358709	1004.98241331542	164.83536637491	1453.70253403992	1063.54939275299	130.484467209607	2425.99735052093	1051.60111989526	153.200689668575	1603.43742895688	617.969872779947	128.422182646059	1136.71909374313	1133.40953800136	174.746575440963	1594.73289744261	863.184512109229	141.886102621199	1559.24009703169	1485.55330671814	189.747365996432	2168.62006722468	1287.44444885505	139.39188177458	2347.50302522889	780.022548129591	152	1120.26082845716	632.036583269941	128.900659603526	1440.42748886699	950.444722355765	140.807306330706	1905.99984417147	342.774035725507	127.214040748598	894.645353095037	679.084416878097	187.368379262075	1147.72787431034
292.537456091844	141.129104600526	603.524166225942	1455.55176478736	249.475177090518	2104.44979616789	669.210093513595	141.129104600526	1310.83387389389	1004.87330641048	164.755530911825	1452.54456576609	1063.53768027971	130.478155086233	2424.88158393587	1051.57815875536	153.155403878512	1602.37240120344	618.213357146682	128.393117955613	1135.93062737026	1133.48794404406	174.682444897593	1593.70892959715	863.697632481356	141.881540282327	1558.51062213008	1485.72732310934	189.668826756626	2167.7244507339	1287.90287781596	139.381738604094	2345.538342442	779.956320259415	152	1119.28788291558	632.063377690647	128.866245147224	1439.18932810634	950.391126977131	140.773942249907	1904.78365855996	342.756684411436	127.216039613968	894.121563438029	678.915360816494	187.243517828962	1146.72215583897
292.530104449597	141.136611235721	603.167957903013	1455.32833969381	249.237112638753	2102.78206456791	669.197975209409	141.136611235721	1310.02351018966	1004.79815497573	164.660312069993	1451.48249925475	1063.62410122593	130.472415072583	2423.82106383674	1051.67555369658	153.118809488912	1601.37909836535	618.555398027851	128.373351385559	1135.20107906956	1133.69283194886	174.619321419917	1592.83565532318	864.292508312227	141.8861026212	1557.75791688134	1485.97833604545	189.58898655594	2166.84239620128	1288.37274163203	139.387506193953	2343.8594887948	779.912939945104	152	1118.41280045903	632.135575207633	128.818706362074	1438.2885745555	950.41604853829	140.739384848741	1903.83032553553	342.748947211104	127.224730527196	893.699587009563	678.846296845508	187.149364352166	1145.97816678568
292.543433566991	141.149426403365	602.893931638411	1455.21718947204	249.025360436628	2101.3973314294	669.226832378729	141.149426403365	1309.45293619591	1004.77395257053	164.554667519964	1450.58674434437	1063.81095487056	130.464409477168	2422.87009366143	1051.89117185955	153.088381149336	1600.49500256769	618.980205423617	128.362777579041	1134.56497090735	1134.02014207031	174.559768204952	1592.1476028756	864.921998098884	141.898917788843	1557.03213257736	1486.25433734714	189.515271153729	2165.9981188105	1288.80493634123	139.414613182864	2342.59550293886	779.878413061667	152	1117.68480407646	632.248022992179	128.763519670196	1437.81037397587	950.517635728241	140.70236274408	1903.20595070477	342.756940707075	127.232618954335	893.40989968093	678.865641528762	187.083557173799	1145.52166973257
292.579082525639	141.163833421114	602.723801453528	1455.23691725699	248.843471138988	2100.3640342358	669.298267261004	141.163833421114	1309.1585867987	1004.81895319977	164.445332480036	1449.91632728581	1064.09461865205	130.452261214396	2422.07568455991	1052.22461564938	153.062484149013	1599.76723972304	619.464282164233	128.358278553597	1134.04310384602	1134.46108112759	174.504734468194	1591.66806373166	865.543312650378	141.917596325812	1556.38350165552	1486.52532206266	189.455052417656	2165.23821619862	1289.16929224007	139.462156775187	2341.84418820169	779.850811695787	152	1117.14997198103	632.392109639943	128.704205595416	1437.79854459298	950.691122698615	140.660399983371	1902.95628739091	342.785649798022	127.232445009852	893.273140659941	678.954335849726	187.041506499712	1145.35394103534
292.635687482278	141.176381527814	602.666873548658	1455.3858330555	248.691216704486	2099.71706153156	669.410005695869	141.177708750711	1309.14413690612	1004.9451212544	164.339687930007	1449.51217984128	1064.45891192687	130.435578414312	2421.48015919078	1052.67138282245	153.04072345119	1599.25348657403	619.975321270208	128.356261708152	1133.64590145977	1134.99869650699	174.453585308807	1591.41772247859	866.120846506171	141.937515850987	1555.87058950063	1486.78631049594	189.412622183581	2164.64818082424	1289.45474558553	139.523173815352	2341.69283059766	779.839792559761	152	1116.85674266909	632.558514660949	128.646545643137	1438.26203843865	950.931077390923	140.61398710734	1903.11192887327	342.837493663841	127.220869151727	893.300976765443	679.092378476095	187.017727277756	1145.46196200001
292.710333256337	141.184813108242	602.721775628229	1455.64427091705	248.566007537961	2099.47126710641	669.554584788916	141.188136137596	1309.39346831387	1005.15943347755	164.244469088175	1449.40381767309	1064.87620339807	130.416638448194	2421.13113450875	1053.22098499874	153.023779221956	1599.02218815236	620.475418693263	128.353029720662	1133.38305333935	1135.61014793171	174.404609028846	1591.4241711981	866.623764028244	141.954626296559	1555.54684184838	1487.04358234807	189.388029688479	2164.3188818676	1289.66177173749	139.584857760389	2342.18284050945	779.856968063093	152	1116.83909634172	632.738988822313	128.594846796779	1439.18147422236	951.230375671592	140.563880111087	1903.6855592071	342.911872842439	127.196301052989	893.496894541858	679.262256113264	187.005977475148	1145.82539024311
292.799295075855	141.188136137596	602.881501175386	1455.97541624978	248.463059757792	2099.63244900802	669.72199439052	141.195235687953	1309.88271212251	1005.45639524107	164.16463362509	1449.60974331653	1065.30845604963	130.396557444281	2421.08719405139	1053.85048156256	153.011749802608	1599.14581559723	620.924244985022	128.344084190483	1133.27298829937	1136.26316185963	174.355833993091	1591.72332988873	867.033541221698	141.963143752539	1555.46054104611	1487.31447402745	189.377065634167	2164.33543957365	1289.80426447483	139.632947960822	2343.31771589027	779.916727638952	151.998672777103	1117.1126095767	632.924461543158	128.553078660402	1440.50204214964	951.573910111267	140.514314519862	1904.65593067508	343.00334574703	127.162239137273	893.849561506773	679.445970130011	187.001327222897	1146.41152607989
292.898917788843	141.186804107525	603.134633646553	1456.33069938219	248.377159109766	2100.19174727824	669.897665034999	141.198833526873	1310.5830116745	1005.81183337706	164.102663425828	1450.12830640853	1065.7135481172	130.377472719005	2421.39838429334	1054.52790145763	153.004650252251	1599.67801616937	621.286718126177	128.329043047154	1133.33758271358	1136.92003968654	174.305893213177	1592.34287771261	867.334555431782	141.959820723185	1555.64979942159	1487.60511674725	189.372425751312	2164.75072490712	1289.89616450211	139.654601793732	2345.0499031136	780.024501502058	151.995349747749	1117.66338967601	633.103355131045	128.522650320826	1442.13882795827	951.93533810409	140.469111701992	1905.9635689504	343.102409434054	127.123127125378	894.332995922897	679.626104706104	186.998672777103	1147.17646706189
293.001749425362	141.182962390819	603.46467094168	1456.65702691981	248.303099102628	2101.11752559689	670.062989082527	141.199906620053	1311.45772879443	1006.18431243468	164.058450728946	1450.92746888762	1066.05445798007	130.360846764701	2422.09540558881	1055.21004413161	153.001327222897	1600.63237650037	621.535749332028	128.308609572228	1133.59774239469	1137.53670223572	174.254663868556	1593.28799738315	867.516694227951	141.942876493951	1556.12725201996	1487.9038457886	189.365733216219	2165.55881818758	1289.94747372902	139.643899597281	2347.28002247224	780.175312500441	151.988250197392	1118.44766741828	633.26351570194	128.503254290177	1443.97407007101	952.284384758014	140.433841406803	1907.50394709643	343.198932781107	127.084936148072	894.904824115545	679.788423825026	186.995349747749	1148.05943668354
293.100749595372	141.178400051946	603.850207143515	1456.90411072969	248.236480329804	2102.34928815694	670.19611949244	141.198833526873	1312.4606889755	1006.51667821553	164.029756697104	1451.94202677501	1066.30103947196	130.34528944147	2423.1588613423	1055.84621361965	153	1601.95940412761	621.656854458504	128.284132515354	1134.05652563423	1138.06734440804	174.203483779124	1594.51571807614	867.577410973261	141.913736629031	1556.88135766505	1488.18588374288	189.349839362489	2166.69850495631	1289.96581831953	139.601525014134	2349.86750894153	780.355369860622	151.976220778044	1119.39791817269	633.392249901003	128.491229678003	1445.8665641734	952.58696973932	140.411358477698	1909.13930035335	343.28414385621	127.052473253798	895.50997334503	679.919441105857	186.986922974495	1148.98592504338
293.186192082516	141.173988939881	604.264405906747	1457.03550247569	248.173988939881	2103.78826445917	670.277013019394	141.195235687953	1313.52966133511	1006.74812172108	164.013077025505	1453.07329549802	1066.44102495102	130.331264215665	2424.49840638931	1056.3878224379	153	1603.53423305282	621.650467198745	128.259047059863	1134.68371642082	1138.47075313101	174.154882687852	1595.92304454126	867.517468770998	141.875545651725	1557.86538467754	1488.40650585064	189.319411022913	2168.04670711814	1289.94411884595	139.53545063688	2352.62625678854	780.537302452054	151.957949325913	1120.42338727267	633.47979880571	128.483777587059	1447.66691236352	952.813927514692	140.402985352166	1910.71747542037	343.352656190714	127.028429474207	896.089843654547	680.00847835306	186.971570525793	1149.87307274343
293.248497597336	141.170784823524	604.673544908283	1457.03637830328	248.11137732277	2105.29331887328	670.291757390529	141.189463360493	1314.58528885456	1006.83139324235	164.004650252251	1454.19795823498	1066.48014702728	130.316346792507	2425.95811455164	1056.79490059124	153	1605.17177123235	621.530510009658	128.236592001891	1135.41127902741	1138.71933460955	174.110833148395	1597.35630038216	867.34876149096	141.833110610476	1559.00269454366	1488.52301104013	189.27281348672	2169.44311727951	1289.87209234772	139.459899110869	2355.34049340801	780.690729802961	151.934192821633	1121.42108019948	633.518459556105	128.478153407545	1449.22592674595	952.942789324551	140.40714150273	1912.08210450898	343.403714308237	127.013077025505	896.585627617748	680.045407854634	186.946199523305	1150.63330839227
293.280966053832	141.168216612421	605.042249275216	1456.91584197048	248.043429648361	2106.70984526928	670.239652283954	141.181031780064	1315.54276633971	1006.74516622744	164.001327222897	1455.19359129049	1066.43775377231	130.300963344187	2427.33536274902	1057.0437465391	153	1606.65172390767	621.323333036931	128.220689866218	1136.14194051817	1138.8040903068	174.074233951621	1598.63277239318	867.096536554165	141.791949144403	1560.19171698306	1488.510620738	189.212459533927	2170.713465554	1289.74108577374	139.391375435509	2357.77596032498	780.785975316178	151.905846523203	1122.28441149648	633.506189268259	128.472530906719	1450.41167199483	952.964401874427	140.419795191636	1913.09755438674	343.440420369924	127.004650252251	896.947798804175	680.023214792466	186.90908637678	1151.18528460713
293.280447296907	141.166370632599	605.336119471051	1456.69827161046	247.962938604852	2107.87471697324	670.133017455047	141.170932971471	1316.32279009074	1006.50057331711	163.998672777103	1455.95642059728	1066.34536391052	130.284132515354	2428.42384164967	1057.13527276107	152.998672777103	1607.77090501484	621.063442649135	128.213929076511	1136.76566982882	1138.74067652732	174.045373703441	1599.58488442941	866.796429403543	141.756678849214	1561.32497208399	1488.36609687949	189.143560600305	2171.70941867477	1289.54601053269	139.342743760474	2359.71971471498	780.800891593968	151.875138566887	1122.92060791953	633.442510055961	128.468308728669	1451.12611005887	952.876772020752	140.435316985162	1913.66545963339	343.465070819818	127.001327222897	897.143631823439	679.936456230957	186.859145596866	1151.46589903692
293.249708410545	141.167345384482	605.528062354274	1456.41457350081	247.861337844286	2108.64233054338	669.996710387593	141.16278304561	1316.86427754888	1006.13917958911	163.995349747749	1456.42061978794	1066.23498309475	130.268020510801	2429.05076179893	1057.08969219712	152.995349747749	1608.38124604494	620.78849362517	128.21981863828	1137.18390857548	1138.56391078751	174.025106444853	1600.09328094355	866.49489259821	141.730154568312	1562.29701217201	1488.11972133927	189.072906728724	2172.32899220939	1289.29741483441	139.322476501887	2361.0018606096	780.728559569754	151.84537917001	1123.26151265116	633.331986920501	128.465339918589	1451.31076773603	952.690700834049	140.446402582673	1913.73325187672	343.480601950604	127	897.159164126934	679.784663432104	186.796254363015	1151.43650462462
293.196301052989	141.171020884849	605.59730778076	1456.08901067877	247.726725473934	2108.89124286649	669.860369903192	141.158205717205	1317.12581446594	1005.71933578977	163.988250197392	1456.55358782929	1066.13316053429	130.252611285892	2429.11786268045	1056.94249696059	152.988250197392	1608.42558212912	620.533676663551	128.238155286113	1137.33165578914	1138.32109686523	174.011749802608	1600.11860048516	866.242036762738	141.714650892803	1563.03115230854	1487.82864614501	189.00799599928	2172.54575062712	1289.01998678424	139.33154573229	2361.54794871836	780.580188936494	151.820383356211	1123.28688710435	633.183296768223	128.466659900577	1450.96333495506	952.430244254239	140.44758824447	1913.31093690835	343.489829531259	127	897.003420946379	679.576252169835	186.721468996109	1151.097132973
293.132072655558	141.178639192132	605.536034123978	1455.73035826889	247.54673634123	2108.54087522146	669.750560302948	141.159960655163	1317.08907474654	1005.30215078938	163.976220778044	1456.35739774213	1066.05300130009	130.240609391394	2428.60112751067	1056.72775787026	152.976220778044	1607.92976295993	620.325760197717	128.267020341468	1137.18324812287	1138.05789440366	174.004650252251	1599.6943164989	866.081214810199	141.709545470215	1563.48685115822	1487.55845929776	188.954452573273	2172.40492081574	1288.74382056196	139.364343942123	2361.38652752119	780.378246751289	151.803698947011	1123.0234366282	633.008312308292	128.4728259506	1450.1462850024	952.124575944638	140.435980002961	1912.47763694866	343.492443190985	127.001327222897	896.713045440463	679.326505060674	186.637071194152	1150.49374116604
293.070474586072	141.18991379323	605.348114718405	1455.33048123193	247.311235500911	2107.56703674977	669.684406497845	141.168667045158	1316.76189514417	1004.93567318994	163.95927654881	1455.86300692864	1065.99574599537	130.233698775051	2427.5380853497	1056.47336584015	152.95927654881	1606.97793227875	620.180198228734	128.304073029891	1136.74620610957	1137.80962967532	174.001327222897	1598.90619244912	866.038607158605	141.712899429614	1563.65744281745	1487.36540887581	188.913990620805	2171.99812247162	1288.49115303642	139.410045029393	2360.62467214705	780.149205393634	151.797835577687	1122.53411436495	632.819483898	128.486055931226	1448.97579264132	951.808138272941	140.411537763206	1911.36506333881	343.489641352292	127.005977475148	896.34244265112	679.055964227804	186.546414691193	1149.71341518971
293.02351202307	141.20428981136	605.052823587713	1454.87421916307	247.013686158369	2106.01781734437	669.66762071638	141.182529113536	1316.18138042965	1004.65201322061	163.938843073884	1455.1255726677	1065.95624658052	130.232177810965	2426.01928340477	1056.19819186169	152.938843073884	1605.69152216991	620.103401578605	128.34528944147	1136.05903788608	1137.59884773896	174	1597.87201061929	866.123190194542	141.722252044631	1563.57087393432	1487.28552389724	188.887429844096	2171.44177122124	1288.2746638157	139.458676704427	2359.42013788164	779.918348775526	151.803698947011	1121.90308229504	632.625375797853	128.50779287034	1447.60571244637	951.507351257347	140.379071740446	1910.13759311013	343.481128703486	127.016400054859	895.955781630021	678.784271087981	186.453585308807	1148.86977781305
292.998949486554	141.220428008357	604.679201221964	1454.34623604157	246.656450473328	2104.006209208	669.694884056711	141.198833526873	1315.40623309036	1004.46074409345	163.917596325812	1454.21542244423	1065.92937647582	130.236740149838	2424.16785459599	1055.9135742466	152.917596325812	1604.20259864908	620.092168276948	128.386710727578	1135.17943442629	1137.43350530109	174	1596.71520603882	866.317937325419	141.734119985241	1563.27939387141	1487.31770504087	188.871117702616	2170.85499424555	1288.08491830865	139.501766551105	2357.94892600952	779.702846032571	151.820383356211	1121.22063880307	632.4279941691	128.538252209535	1446.19507160961	951.237491305751	140.344657353717	1908.95672907924	343.467338783959	127.036856247461	895.612971211589	678.524902422922	186.364256028745	1148.08077864557
292.998499053816	141.236392416426	604.266823189738	1453.73774070317	246.250258097516	2101.71126986689	669.751194940929	141.21261319447	1314.5195658534	1004.35104718548	163.898917788843	1453.2178721937	1065.91497196138	130.245186719798	2422.12041035516	1055.62947130897	152.898917788843	1602.63514980828	620.136884234042	128.424803363587	1134.17212018647	1137.31219048228	174	1595.5462023065	866.591452219343	141.746575440962	1562.8473125144	1487.43682106958	188.86365062214	2170.33982666773	1287.90611413975	139.53545063688	2356.37507642159	779.515212161442	151.84537917001	1120.57263710423	632.22368041773	128.576957136592	1444.88544503669	951.002080631244	140.315931425727	1907.96088414664	343.449453813482	127.069152925397	895.361892666051	678.284798010323	186.283181256141	1147.45124927806
293.017727277756	141.250508614521	603.853175253558	1453.05276916443	245.817043171402	2099.33859953198	669.816484541347	141.220957065105	1313.60657394151	1004.29622120139	163.8861026212	1452.21338355467	1065.92153898022	130.255964899008	2420.02862515769	1055.35825169023	152.886102621199	1601.10984757681	620.224282749391	128.456916204248	1133.10800104907	1137.22927591725	174.001327222897	1594.46377950599	866.904479227171	141.757656300872	1562.33612010869	1487.60255776814	188.862844589904	2169.96809345808	1287.72353754184	139.559657573898	2354.83320646185	779.367623991052	151.875138566887	1120.0307089903	632.003913818057	128.620474698331	1443.77574144163	950.794501918635	140.297199241036	1907.2377641303	343.42852534034	127.113630179914	895.226973861338	678.062618538777	186.215495439593	1147.05075092675
293.046330475249	141.260353293398	603.47530301077	1452.30396698481	245.384089744011	2097.10369547009	669.868741796564	141.220957065105	1312.75532202994	1004.25756204051	163.881540282327	1451.28112757341	1065.96218137367	130.266758483606	2418.04181922053	1055.11645632134	152.881540282327	1599.73640588794	620.337039046435	128.480672708528	1132.05549663108	1137.17645974784	174.004650252251	1593.54757380514	867.217962495678	141.76684269955	1561.80412138527	1487.77252327351	188.868189202304	2169.79125333639	1287.53049385573	139.576598328362	2353.44209154871	779.271913198894	151.905846523204	1119.65575419711	631.764684289466	128.66489156432	1442.92392062758	950.609698032827	140.292841776693	1906.83122143779	343.407773590483	127.167339822261	895.217822269148	677.856792645704	186.16463362509	1146.9133636581
293.073979959847	141.263347540875	603.158858780058	1451.51838768319	244.981663589381	2095.19099822502	669.889622495496	141.21261319447	1312.03604125351	1004.19729363035	163.886102621199	1450.48367284588	1066.04741220648	130.27642456638	2416.31253721438	1054.9195603598	152.8861026212	1598.62319431386	620.455770315317	128.496504841325	1131.08388077464	1137.14701321225	174.011749802608	1592.86993399726	867.504168365401	141.77500965277	1561.29244002664	1487.92010050827	188.880218621652	2169.82746354691	1287.33997883084	139.589954970607	2352.28866150834	779.242432456194	151.934192821633	1119.48971007758	631.507874969119	128.705607287366	1442.34380442822	950.446000145341	140.302828982772	1906.73320505636	343.391363017655	127.224209336535	895.326028378233	677.666886452522	186.13163707441	1147.03252966564
293.090397773584	141.257457979105	602.921093855273	1450.72707364944	244.636474479142	2093.73603921348	669.869891545197	141.198833526873	1311.50158878417	1004.08279961198	163.898917788843	1449.86655136972	1066.18228975964	130.285459738251	2414.98688897756	1054.78182772284	152.898917788843	1597.87072994081	620.559156445981	128.50579983323	1130.26062966766	1137.13527813136	174.023779221956	1592.49691546745	867.748257351342	141.782895020996	1560.83070120894	1488.03839083451	188.898917788843	2170.07282292897	1287.17906034508	139.600381025088	2351.44486399596	779.290920480037	151.957949325913	1119.55353894056	631.244731331313	128.737086002446	1442.0215771796	950.308288307468	140.327230795598	1906.90239172701	343.383631379545	127.276136516073	895.535830776323	677.496243259671	186.114957402811	1147.37361745639
293.091357466363	141.2442150964	602.768619980076	1449.96607290358	244.368160643043	2092.8051705969	669.810044548581	141.183856336433	1311.18096084211	1003.89982080027	163.917596325812	1449.45844729876	1066.36555259038	130.297209540859	2414.19412873085	1054.71554284677	152.917596325812	1597.56484496363	620.629007344238	128.512987296965	1129.64821011522	1137.14365023227	174.04072345119	1592.48766424562	867.944421037665	141.792734892699	1560.42689338469	1488.13576049882	188.92348032536	2170.49039817457	1287.0791874601	139.607030142708	2350.94418330501	779.419938706686	151.976220778044	1119.83770846484	630.996052548584	128.754203688928	1441.93521650483	950.206983611477	140.363449996508	1907.28395853744	343.388908912375	127.314760770662	895.832213616119	677.353901299668	186.112160371292	1147.88814337078
293.077824179861	141.224730527196	602.701333842487	1449.26901339938	244.18430430661	2092.40212737194	669.722348220005	141.171990074511	1311.0870714631	1003.65353325142	163.938843073884	1449.27822085472	1066.59182839054	130.313949397401	2414.02857155043	1054.73184734246	152.938843073884	1597.76622746936	620.653127443974	128.522541727599	1129.29736352198	1137.18479105295	174.061156926116	1592.89094988328	868.09786096514	141.80343708915	1560.0822577959	1488.23663586994	188.952194153907	2171.03487338749	1287.07155151284	139.606622224352	2350.79953948181	779.625832436712	151.988250197392	1120.31189023809	630.785570383853	128.753942190206	1442.06845716052	950.155994766486	140.410067747069	1907.828998593	343.409629732185	127.33343930763	896.206385268398	677.250293470259	186.118809488912	1148.53003610673
293.057652562796	141.203116249006	602.716416609774	1448.66544358613	244.081794541325	2092.47882349521	669.628181525465	141.167060205521	1311.22271372229	1003.37081594496	163.95927654881	1449.34454990955	1066.85838601129	130.339687930007	2414.53982104907	1054.84623222351	152.95927654881	1598.50949151339	620.629164584186	128.539573870211	1129.24384588354	1137.28674837289	174.083730897085	1593.7436353203	868.213679836899	141.815645190582	1559.78784062094	1488.3679396337	188.982534580106	2171.6505900239	1287.17457659159	139.595832114523	2350.9889903807	779.895575660281	151.996676970646	1120.9230603626	630.63658615123	128.734647004162	1442.42592966645	950.167779862514	140.464098930382	1908.5184197602	343.447198049048	127.330204191655	896.662479024567	677.197313481481	186.131624656556	1149.27221375718
293.040179276815	141.183050304197	602.811434777288	1448.17536636132	244.047310251573	2092.95668267585	669.554056338642	141.170235136553	1311.58686795725	1003.09636097479	163.976220778044	1449.68211677137	1067.17386986673	130.374524947913	2415.72694678748	1055.08314916571	152.976220778044	1599.80176607729	620.567720534382	128.565979307689	1129.50427255032	1137.49417502763	174.105732463407	1595.06778108226	868.298570535057	141.827739805632	1559.53679270164	1488.55701920661	189.011487944747	2172.2935610231	1287.39460634605	139.573349531701	2351.46987664454	780.215069525999	152.003323029354	1121.61279614136	630.566902732144	128.699538187711	1443.03234731149	950.255305446121	140.524501038249	1909.36664288813	343.502188925141	127.306595855269	897.214436967398	677.204500945216	186.149543637674	1150.1101103509
293.037654413611	141.1669121072	602.989420175346	1447.81448862403	244.057216981648	2093.76281360677	669.529693757362	141.18105449774	1312.18970348838	1002.88826246473	163.989577420289	1450.3354982527	1067.5565560677	130.416114129048	2417.5481862927	1055.4742384508	152.988250197392	1601.63351341738	620.491570289744	128.600403742764	1130.08279148366	1137.86218951527	174.125647181409	1596.87676691489	868.358341700841	141.838544177287	1559.33856140801	1488.83022246787	189.036056043485	2172.95236438399	1287.72813879397	139.540100889131	2352.19972570267	780.575116896782	152.011749802608	1122.33447238088	630.584521107159	128.653383335633	1443.92254926398	950.428242289579	140.587565857444	1910.41742308301	343.573197771043	127.269207781713	897.87973067144	677.276330356533	186.171020884849	1151.05945794628
293.058463146799	141.155310402913	603.258265882401	1447.58652034535	244.082181371047	2094.83679299786	669.580449928453	141.196016698648	1313.04889757826	1002.80406254998	164	1451.35734047521	1068.0344015795	130.461115702712	2419.94431706203	1056.05495894703	152.995349747749	1603.98950640046	620.432807466168	128.639515754658	1130.98054833552	1138.44606718365	174.142238939629	1599.17815395833	868.396983865932	141.846444535045	1559.22794167025	1489.20369798765	189.052740452684	2173.65838385026	1288.16183318777	139.499824395909	2353.15998877438	780.971920450733	152.023779221956	1123.06837034541	630.686672913168	128.606355025466	1445.12182016596	950.691593019237	140.651897645019	1911.71918293248	343.658570255311	127.228069033316	898.670960921989	677.411475238453	186.199095384734	1152.14087079013
293.107330833533	141.148210852555	603.621253344883	1447.48630660614	244.08771190339	2096.11890276142	669.726339892781	141.212701107848	1314.17630544077	1002.89186084597	164.010422579711	1452.78374989679	1068.63156578352	130.502028049827	2422.84102075484	1056.84541960172	152.998672777103	1606.8418118317	620.422440586176	128.676016989708	1132.1952005722	1139.27838945032	174.15462082999	1601.96513130163	868.417805484791	141.851789147445	1559.26454892367	1489.68394614961	189.060358759967	2174.48236075293	1288.67921747996	139.458571887972	2354.36416295767	781.410107101393	152.04072345119	1123.8268191287	630.857422650788	128.567756963323	1446.62704062364	951.039099476899	140.713064940531	1913.30455295247	343.755357188539	127.192280050775	899.586107884052	677.600656110861	186.233960273773	1153.36497153344
293.184001734981	141.143132885243	604.071379449515	1447.49017516476	244.036212892519	2097.53494705402	669.974194061508	141.227270867166	1315.55942159552	1003.17285727959	164.023779221956	1454.60666919337	1069.35391613672	130.532534692364	2426.14394735453	1057.83559981856	153	1610.12931784878	620.484218055605	128.701992292992	1133.7165232286	1140.35324310157	174.162239137273	1605.19652009005	868.422583586004	141.855112176798	1559.53673258339	1490.26031936691	189.058624452232	2175.53149833243	1289.26176666183	139.421024201333	2355.88050699084	781.894960352436	152.061156926116	1124.6619061848	631.075473316151	128.544934375233	1448.39452678421	951.4599200173	140.767280714434	1915.16621186332	343.862416874843	127.169592679405	900.604968356677	677.830737029091	186.277196540084	1154.71928157583
