Light	Light	Light	Light	Light	Light	Light	Light	Light	Light	Light	Light	Light	Light	Light	Light	Light	Light	Light	Light	Light	Light	Light	Light	Light	Light	Light	Light	Light	Light	Light	Light	Light	Light	Light	Light	Light	Light	Light	Light	Light	Light	Light	Light	Light	Light	Light	Light
Optode1-730nm	Optode1-Ambient	Optode1-850nm	Optode2-730nm	Optode2-Ambient	Optode2-850nm	Optode3-730nm	Optode3-Ambient	Optode3-850nm	Optode4-730nm	Optode4-Ambient	Optode4-850nm	Optode5-730nm	Optode5-Ambient	Optode5-850nm	Optode6-730nm	Optode6-Ambient	Optode6-850nm	Optode7-730nm	Optode7-Ambient	Optode7-850nm	Optode8-730nm	Optode8-Ambient	Optode8-850nm	Optode9-730nm	Optode9-Ambient	Optode9-850nm	Optode10-730nm	Optode10-Ambient	Optode10-850nm	Optode11-730nm	Optode11-Ambient	Optode11-850nm	Optode12-730nm	Optode12-Ambient	Optode12-850nm	Optode13-730nm	Optode13-Ambient	Optode13-850nm	Optode14-730nm	Optode14-Ambient	Optode14-850nm	Optode15-730nm	Optode15-Ambient	Optode15-850nm	Optode16-730nm	Optode16-Ambient	Optode16-850nm
818.90298932269	159.70236274408	1396.03828672693	1282.12226648637	261.753949697154	1865.78862321213	926.080974220175	198.361885937292	1689.36569446261	1351.22331081838	160.554579606586	1931.96852593094	999.297211463812	187.464125122827	1872.03302557065	1144.70754365227	149.13740940187	1778.94758757266	900.241423936177	151.237024504179	1812.4075259498	1185.06925783451	207.197454552599	1887.71624721491	848.493205984392	164.981728547869	1401.60230365234	1780.28581546404	222.387855965193	2715.62955726886	1090.45607693098	223.320895287215	1952.5431164257	1407.93470069962	146.909881843156	2010.58538473685	994.291347768172	211.742542020895	2217.23274126102	1457.44303772231	135.167166098974	2817.6561823325	930.476725398566	151	2180.10346552798	1088.33014617083	155.350651984319	2062.01143283611
817.636401066286	159.621801921228	1392.23150731053	1282.11349241199	261.603009278436	1865.0544047158	924.899304043452	198.238491613027	1685.43563766671	1349.52563695372	160.445420393414	1928.829166961	998.096930363541	187.344600040119	1867.9464209058	1143.6811429643	149.040977442964	1775.51426198639	898.486264626834	151.186018359229	1806.78212456665	1183.96145942032	207.035466973365	1884.29697981043	846.994973617298	164.908912653493	1396.94077951594	1777.81575422883	222.242467315516	2707.41205685369	1088.98747806048	223.224463328309	1947.46566633652	1404.9062786129	146.910667591451	2001.3265817413	992.988569675658	211.676726976441	2212.65267612778	1454.45430671489	135.127603654342	2806.77402446814	929.114846107103	151	2174.42564053312	1087.34698655278	155.272491477544	2057.37687950351
816.411079076004	159.54546343198	1388.89663957443	1282.11827419556	261.451581102413	1864.67206431207	923.892346138397	198.12470834005	1682.04927258502	1347.86455030522	160.343272817222	1926.16856109456	996.982651539498	187.248592321505	1864.2936757796	1142.87311660381	148.968332572101	1773.03786183727	896.909535232292	151.134876927986	1801.69999844821	1182.99713530134	206.908751298435	1881.31184353834	845.571052399916	164.843616365965	1392.65052038952	1775.63249264003	222.151898725934	2700.31866156466	1087.68702348952	223.143386877018	1943.18613786865	1402.29127719801	146.922246578062	1993.69562444341	991.80762532296	211.627312612024	2208.81587403904	1451.64647686481	135.114413228436	2797.27937866345	927.896522321932	151	2169.7771068403	1086.47297508769	155.220943857993	2053.49050762639
815.428724309409	159.482276640875	1386.50370464857	1282.30954272493	261.336182777429	1865.02023018745	923.24851095061	198.035466973365	1679.75968947893	1346.63662687773	160.262646798667	1924.57005144071	996.127776220793	187.189472871057	1861.577928355	1142.43638832437	148.923046782039	1771.93340614437	895.724054337259	151.089586400323	1797.74976694145	1182.34075364218	206.832661426308	1879.19516248599	844.353471988407	164.793447183297	1389.10849490715	1773.96901534077	222.124884388002	2695.00575116682	1086.70212063581	223.083557173799	1940.12234582031	1400.33316970151	146.940170296781	1988.31067501862	990.858610357942	211.598304215896	2206.13108174728	1449.25593446141	135.1239101739	2790.0689098175	926.941617795144	151	2166.67674432782	1085.81077493854	155.201489872551	2050.7838167642
814.838172186183	159.440596417877	1385.37111552654	1282.82032950441	261.286073011829	1866.36028043369	923.089251008829	197.981497510984	1678.94169252097	1346.1079536077	160.212539802415	1924.39073266048	995.649490126903	187.173941740271	1860.10789192313	1142.43265466128	148.903829898955	1772.28467317124	895.054761009182	151.053800476695	1795.27588586127	1182.09026026807	206.814620539314	1878.18003735181	843.44340148654	164.759216130272	1386.56632711359	1772.96154572723	222.158049924368	2691.78957142149	1086.11884150293	223.046156751962	1938.48034709173	1399.1327098953	146.95927654881	1985.32242364895	990.202696586252	211.590570074477	2204.79520819836	1447.41348490597	135.149110360391	2785.53934478208	926.311507597803	151.001327222897	2165.33463558006	1085.42316587764	155.213068859162	2049.47543416199
814.70768202179	159.425152996884	1385.61430846747	1283.71484449281	261.316532351024	1868.78509163947	923.444939488938	197.967788397726	1679.72618483651	1346.3598475435	160.195860130816	1925.70377580754	995.58998596264	187.200510383067	1859.94213658603	1142.82392204359	148.904895263991	1773.84025872547	894.924827106772	151.028429474207	1794.33121732886	1182.26178393955	206.850653865123	1878.25629737272	842.894124568126	164.740540652217	1385.11880292302	1772.6228380489	222.240194799608	2690.61308234643	1085.94777716291	223.029477080364	1938.23232593523	1398.63840258295	146.976220778044	1984.43084902526	989.84732835014	211.602058019224	2204.77963445413	1446.1277869205	135.182359002961	2783.55217611298	926.003604863855	151.004650252251	2165.63952158944	1085.32138426195	155.251232311618	2049.54087580448
815.015507592759	159.437701103584	1387.13559559811	1284.9788085454	261.428411205692	1872.20417285384	924.25484092645	197.99422476525	1681.99142891678	1347.28202457204	160.210173544869	1928.29988922105	995.924108826445	187.261848632518	1860.92586187494	1143.49845117623	148.918923548709	1776.11876562299	895.273777985697	151.013077025505	1794.73409806217	1182.7999109325	206.928394869207	1879.21682077302	842.70852098825	164.732547156245	1384.71313266585	1772.86411134002	222.352594139514	2691.10827681025	1086.13736957175	223.029756697104	1939.15931463422	1398.68705394428	146.988250197392	1985.01115105168	989.753701349118	211.62971000713	2205.86188058806	1445.30377484099	135.21726344672	2783.52494400728	925.962086493802	151.011749802608	2167.21919452824	1085.46734030156	155.309504292837	2050.7385168933
815.659256094035	159.474655899857	1389.6454955583	1286.5208109931	261.607861771085	1876.35538652429	925.390281130726	198.053883652472	1685.39933525796	1348.60854404284	160.247914089438	1931.7321611875	996.569651044452	187.344867239005	1862.74609100351	1144.29396950237	148.940170296781	1778.53873506784	895.982898582932	151.004650252251	1796.14578960611	1183.59303608544	207.028958530954	1880.72062928162	842.836645252897	164.731577966583	1385.17028346871	1773.51181464438	222.475620933661	2692.70382476743	1086.58761436273	223.042050674087	1940.91595096111	1399.04651646245	146.995349747749	1986.28572414754	989.854417422839	211.6683032621	2207.70132158187	1444.7771008927	135.251835837418	2784.61643102614	926.097217161767	151.023779221956	2169.55264703148	1085.7831811444	155.380940437944	2052.6855394505
816.48429019558	159.527824067602	1392.73024851432	1288.19731814949	261.832250393128	1880.86198045842	926.682585761615	198.136204150883	1689.47445836985	1349.99311958534	160.29851404608	1935.41516866057	997.411395764861	187.435245215884	1865.02403692999	1145.03544442592	148.965254023958	1780.55767193911	896.91201332238	151.001327222897	1798.17577276132	1184.49990418992	207.131370664782	1882.3863002583	843.188162522412	164.733312274317	1386.22995715841	1774.35428715647	222.59035311236	2694.76606610963	1087.17758029328	223.062484149013	1943.11171402104	1399.47171460468	146.998672777103	1987.50837698467	990.071729935425	211.713306514452	2209.91118138992	1444.35915543778	135.284132515354	2785.92921471059	926.307062731821	151.04072345119	2172.08427641796	1086.17354837867	155.459448678132	2054.94872890414
817.320697732067	159.58676288412	1395.93158644674	1289.84378097911	262.074501150508	1885.30650749294	927.961769160267	198.227698582228	1693.69629382275	1351.0915074275	160.35294424102	1938.74730034568	998.325834330238	187.519571772682	1867.38999000598	1145.56825336661	148.9939480558	1781.77369680092	897.92480102911	151	1800.45430081378	1185.37935387293	207.217261546836	1883.86873816257	843.645431967865	164.735880485421	1387.59211616023	1775.1736967634	222.683295825574	2696.71190382093	1087.78430571541	223.087053926439	1945.37195686403	1399.74357899026	147	1988.09865636947	990.333430778696	211.75911579904	2212.13290064845	1443.8813530172	135.314493571776	2786.70467231432	926.498550487742	151.061156926116	2174.3342628503	1086.54753540879	155.540551321868	2057.14041386878
818.018302374647	159.640943960103	1398.83868189922	1291.31288406614	262.309660085674	1889.322846316	929.086832905639	198.314327493379	1697.59485363254	1351.63956476198	160.402592233027	1941.23197950811	999.201317925127	187.588527416479	1869.55082898424	1145.78668239489	149.028429474207	1781.98577720025	898.908379765545	151	1802.68263350005	1186.11462261455	207.274581493847	1884.92013675418	844.084948510596	164.739196273865	1388.96781858036	1775.78721518267	222.74473236843	2698.11193599379	1088.3007052117	223.112832013765	1947.39619819235	1399.7032300176	147	1987.72755498494	990.582370182249	211.799310331425	2214.08632208842	1443.22982414151	135.343721350074	2786.44917264724	926.604204100557	151.082403674188	2175.97170692776	1086.8400534187	155.620386784953	2058.9864586261
818.475754317897	159.681383194894	1401.14649474987	1292.50610008512	262.517990558011	1892.65559833897	929.966570322369	198.382846431138	1700.81689486311	1351.50503889684	160.442507148672	1942.5542692423	999.952057872283	187.636695230468	1871.33239225015	1145.64768411622	149.0729294464	1781.21190178091	899.778406552727	151	1804.66105604292	1186.63192190371	207.298334523358	1885.43055541713	844.399074868839	164.743601823709	1390.118686101	1776.07377850832	222.770531085979	2698.73476756551	1088.65222021602	223.137676600757	1948.98513354239	1399.27071978208	147	1986.32807026823	990.783032021894	211.828196066629	2215.59396964109	1442.35409973544	135.371992474029	2784.98141223749	926.588131412286	151.101082211157	2176.84355926195	1087.02054133742	155.696473182311	2060.3606130171
818.646864255576	159.701450818391	1402.69028194069	1293.38050564204	262.687329245641	1895.19314929644	930.562540537394	198.424007897212	1703.1623223546	1350.6901470148	160.469285425279	1942.61050800034	1000.5247136761	187.661283959429	1872.66856381177	1145.16745350433	149.128982628616	1779.63328487072	900.480356157127	151	1806.27363178952	1186.903044564	207.291405788998	1885.40940259646	844.512054809354	164.75115493529	1390.88232008715	1775.98668691953	222.761038947689	2698.55024920276	1088.79869124824	223.159183168863	1950.04628302189	1398.44440359469	147	1984.05649404449	990.914292377572	211.839684011376	2216.57743070503	1441.26451512205	135.398719467077	2782.40154568837	926.444032738191	151.113897378801	2176.96214064655	1087.09038993632	155.766494966138	2061.27075440951
818.540730911647	159.701992292992	1403.45107564414	1293.95161552816	262.813779400373	1896.97080530192	930.885949595194	198.43319429589	1704.59501798196	1349.31324274108	160.482994538537	1941.49798847053	1000.89764290882	187.661283959429	1873.59076014499	1144.40862799194	149.196033854103	1777.53249446114	900.985958255984	151	1807.48169216749	1186.94051582701	207.260693095081	1884.96589423057	844.388636020958	164.762730793415	1391.18556176268	1775.54823418649	222.72175335045	2697.6968580255	1088.73424994167	223.175054304917	1950.58444123787	1397.28390317274	147	1981.2162375322	990.967484019846	211.829388899762	2217.03625283051	1440.01326047367	135.423196523951	2779.00482227908	926.187803434976	151.118459717673	2176.45975449689	1087.07372677067	155.82843764055	2061.82153466124
818.207948699048	159.686050602599	1403.53030696556	1294.27594812483	262.900042771343	1898.13886128645	930.983208257308	198.411280642946	1705.22340806509	1347.56919176775	160.483749356787	1939.47482650061	1001.07830138552	187.638022453365	1874.19489978006	1143.46190481899	149.268422033417	1775.21498312052	901.292856735187	151	1808.31149602593	1186.78944522586	207.215777756107	1884.26581947865	844.03635923902	164.778592502158	1391.04854155635	1774.83858054017	222.658984847096	2696.43331153644	1088.48298197613	223.183485885345	1950.6886291077	1395.89313543113	147	1978.17552280371	990.942098654778	211.794128973969	2217.02733646252	1438.67800670372	135.443315684217	2775.18225651763	925.850595961439	151.113897378801	2175.53939539578	1087.00647185004	155.88074007835	2062.16430816925
817.723933712993	159.661110236143	1403.1131093033	1294.43224936345	262.953843248038	1898.91359825605	930.921224302521	198.363102529134	1705.26247828836	1345.67957754186	160.474744143501	1936.89827267818	1001.09969004221	187.593177668729	1874.60887850216	1142.42964100465	149.338106715335	1772.96061191429	901.423965405437	151	1808.84278495784	1186.51612702683	207.1669121072	1883.49592524846	843.494833151005	164.797037411537	1390.55772281614	1773.96677840112	222.583794829089	2695.04657974123	1088.0881568904	223.183485885345	1950.48787782015	1394.38728195582	147	1975.26123462789	990.836747728813	211.734813220501	2216.63255001864	1437.32950715785	135.455863790917	2771.31101057115	925.463750887457	151.101082211157	2174.40969619596	1086.91772029297	155.922443019025	2062.441764794
817.173543245645	159.637237272549	1402.4325970556	1294.50373528639	262.986922974495	1899.53123127665	930.776014563244	198.298181430295	1704.98990413466	1343.85686582683	160.459881955414	1934.17581706201	1001.01277798366	187.529994352394	1874.96710180791	1141.41870321067	149.394596233746	1770.98684179422	901.42665004703	151	1809.19637155408	1186.19964326046	207.122582951003	1882.82720791512	842.827817240497	164.815715948506	1389.85103302522	1773.05230970841	222.505255658855	2693.81015994272	1087.60243995884	223.175054304917	1950.13449260735	1392.88048960121	147	1972.7267963184	990.650230460724	211.653998267932	2215.93266365842	1436.02303119975	135.457256005931	2767.66398164455	925.053028882491	151.082403674188	2173.23429536212	1086.82206587792	155.951971850766	2062.74153923282
816.631582834272	159.622755080325	1401.72675412314	1294.55521960469	263.011749802608	1900.20253479888	930.6154499783	198.226741810419	1704.69567944767	1342.26302749974	160.443123980855	1931.70678588728	1000.88134940359	187.453046962692	1875.39582897493	1140.53217705106	149.428658149462	1769.45461534702	901.367469237103	151	1809.5221415466	1185.9224463559	207.089306783583	1882.40379198685	842.110712895068	164.832660177739	1389.09134416749	1772.21151655176	222.433413691742	2692.94585335924	1087.08340734716	223.159183168863	1949.78035077828	1391.47777836385	147	1970.72976482662	990.382996725982	211.559229858837	2215.01011379891	1434.79510710701	135.445594116701	2764.39856708574	924.638886100641	151.061156926116	2172.12203494655	1086.72170512166	155.970243302896	2063.09160695504
816.151999993515	159.622755080325	1401.19518548827	1294.62217945707	263.038852053918	1901.06578690006	930.48974413448	198.158656149942	1704.62273944333	1340.99140999678	160.428388250802	1929.81107873136	1000.77046910437	187.367863412439	1875.9979387916	1139.85985112884	149.434521518787	1768.47264925378	901.321396210323	151	1809.97406291325	1185.75908233455	207.070480148294	1882.32574743612	841.421966632334	164.846444535045	1388.44225327928	1771.54978005048	222.377062934393	2692.60799421714	1086.58890227705	223.137676600757	1949.56068913541	1390.2756921586	147	1969.34668307142	990.040907947853	211.459899110869	2213.93764254324	1433.6659554396	135.419269401317	2761.54953176046	924.235850281683	151.04072345119	2171.11865812641	1086.60574754069	155.976500394784	2063.4558607701
815.760514604502	159.638564495446	1400.96690683785	1294.70525497771	263.076252475754	1902.16616717929	930.425324889879	198.101336202931	1704.92722938165	1340.05823267415	160.417441351944	1928.67522083552	1000.73764752555	187.281499058922	1876.85108797689	1139.47047986641	149.411280642946	1768.10940293955	901.362487989279	151	1810.69477560595	1185.7667768933	207.065829896043	1882.65103805055	840.835197888382	164.857673146993	1388.04771179543	1771.15886285155	222.341538509487	2692.88659007738	1086.17500160559	223.112832013765	1949.58452939542	1389.36515262169	146.998672777103	1968.60772673664	989.638598406495	211.366268990656	2212.79492931859	1432.65217815965	135.379263443808	2759.08817399898	923.856758898491	151.023779221956	2170.23786033369	1086.46233378002	155.971570525793	2063.76679941646
815.45539385499	159.66708771129	1401.08952661568	1294.77361049295	263.125659599262	1903.45927287134	930.422924509966	198.058450728946	1705.66390118046	1339.41525745831	160.411902652073	1928.33325102083	1000.82219789919	187.200684106353	1877.99302216425	1139.39684675152	149.363102529134	1768.38158887958	901.547948529485	151	1811.78103506706	1185.97488793565	207.072906728724	1883.3831514004	840.410465886554	164.868463256822	1388.01609673372	1771.10242672191	222.329405236247	2693.81944081445	1085.88728756518	223.087053926439	1949.92846276851	1388.81946012402	146.995349747749	1968.52858868608	989.204319082665	211.286947477323	2211.67577596466	1431.78176448859	135.329043047154	2756.98517832299	923.521213079636	151.011749802608	2169.49185142862	1086.28908577148	155.957949325913	2063.96180691088
815.216459774261	159.702450657458	1401.52476812999	1294.78090327607	263.184284051495	1904.82258167866	930.463530894467	198.029756697104	1706.78072706279	1338.97965032797	160.410341801587	1928.66242483267	1001.03893908538	187.132964297307	1879.42888978852	1139.62683007343	149.298181430295	1769.2543041212	901.906323770051	151	1813.27395829377	1186.37723774129	207.087053926439	1884.4807120797	840.188809307843	164.881452368949	1388.40470084909	1771.41496600127	222.338383424786	2695.38644177083	1085.75925411311	223.062484149013	1950.62202400594	1388.68752532945	146.988250197392	1969.11025944076	988.775356982202	211.225790551206	2210.68359333719	1431.09101639958	135.272103096006	2755.24253560103	923.250272436055	151.004650252251	2168.90346048573	1086.09312655049	155.937515850987	2064.00466180471
815.019132755794	159.738848540453	1402.17165224145	1294.6880279745	263.244642811461	1906.09608815711	930.521371779762	198.013077025505	1708.14710531421	1338.67065474969	160.410381356307	1929.42786313193	1001.37971266165	187.082229950902	1881.13420777117	1140.10871216176	149.226741810419	1770.63664552672	902.434705567501	151	1815.15250399236	1186.93880428709	207.102409434054	1885.8654281085	840.190333253758	164.896263343049	1389.2180859719	1772.0880698235	222.361601582951	2697.5159943218	1085.80277066349	223.04072345119	1951.64893753754	1388.97618165064	146.976220778044	1970.33460537299	988.387953758004	211.184639384955	2209.92166430093	1430.61677521306	135.213242582449	2753.91926077866	923.060924427809	151.001327222897	2168.51635131578	1085.88884003401	155.912946073561	2063.90531673013
814.844472542309	159.770603743787	1402.90011419692	1294.47687613638	263.296056041249	1907.12467452185	930.570117929489	198.004650252251	1709.59136728897	1338.43398840945	160.409779696762	1930.34833584811	1001.81586201917	187.051929079423	1883.04784424569	1140.75791364771	149.158656149943	1772.37771521733	903.094764618013	151	1817.32196158122	1187.602665296	207.1138973788	1887.42605588593	840.407409956795	164.912946073561	1390.41602701851	1773.06472112583	222.389082635661	2700.08748111587	1086.004051726	223.023779221956	1952.94683391686	1389.64038159446	146.95927654881	1972.14148528363	988.072140386835	211.160054130763	2209.46643559307	1430.38438254241	135.15663762581	2753.09340406606	922.960949205205	151	2168.36693785194	1085.69137472837	155.887167986235	2063.70439710492
814.68704279407	159.795013374808	1403.58057788603	1294.16092721687	263.327461832483	1907.79197003452	930.594693183155	198.001327222897	1710.94089793108	1338.25914984681	160.403919455924	1931.1569755075	1002.30852246891	187.041506499712	1885.07923346594	1141.47783352615	149.101336202931	1774.28063708383	903.823293569012	151	1819.63052610046	1188.30598809514	207.118459717673	1889.03521444065	840.812123747687	164.925766048379	1391.91984688135	1774.25216355253	222.409005289322	2702.93902882452	1086.32909383641	223.011749802608	1954.41932260436	1390.58974431078	146.938843073884	1974.41320768097	987.838742707456	211.147936798037	2209.3464646415	1430.38829027646	135.106530629557	2752.82147683677	922.938264334165	151	2168.46345964685	1085.50439150296	155.860996176346	2063.4532824591
814.553142158713	159.808283782363	1404.1150879586	1293.78038680456	263.328527197518	1908.0462168541	930.590514063438	198	1712.06074061185	1338.17312010557	160.388994722283	1931.66239006875	1002.81265808021	187.046700926337	1887.11311775891	1142.17320470785	149.058450728946	1776.12814026713	904.541853689991	151	1821.89236983739	1188.98823254842	207.1138973788	1890.56330798308	841.35814514817	164.929519851706	1393.63704346757	1775.53425159558	222.412607865843	2705.90041811139	1086.72809301469	223.004650252251	1955.96068165937	1391.70207063372	146.917596325812	1976.98481302873	987.678592918835	211.143654075904	2209.52379491166	1430.58665814799	135.065829896043	2753.07841819729	922.963159115452	151	2168.75529293964	1085.31594797735	155.836166578886	2063.18012776348
814.457377998642	159.809644997758	1404.45297880613	1293.39012162547	263.291932807918	1907.90507361001	930.56152897117	198	1712.87290278544	1338.22072581661	160.363190442512	1931.78016282514	1003.28888961172	187.062484149013	1889.0173006284	1142.77277664813	149.029756697104	1777.71086121275	905.174429566851	151	1823.91572021092	1189.6070600317	207.101082211157	1891.89569012451	841.987133476888	164.919097271995	1395.46875269376	1776.78941660173	222.394596233746	2708.80319042389	1087.14517596797	223.001327222897	1957.46502344339	1392.84361801576	146.898917788843	1979.6516532025	987.569036303862	211.143132885243	2209.89269654427	1430.91155986506	135.035529024564	2753.73399588391	922.996113238653	151	2169.12799575566	1085.10443323357	155.811868669578	2062.86987105201
814.414745514048	159.797983108528	1404.58795094959	1293.04539831088	263.215153313244	1907.4423738177	930.519795994412	198	1713.35760466776	1338.44264940191	160.326618770589	1931.5287975768	1003.70569274621	187.082403674188	1890.65980238948	1143.23811592347	149.013077025505	1778.86776232961	905.660511194951	151	1825.53526869246	1190.14213839527	207.082403674188	1892.94914138791	842.635884138681	164.891564246711	1397.31623623417	1777.91057976142	222.356811444749	2711.49915810361	1087.5264933752	223	1958.83698681801	1393.89326217561	146.8861026212	1982.19934829415	987.478349848508	211.143560600305	2210.29121959479	1431.28249047274	135.016400054859	2754.54996178069	922.996118103377	151	2169.40927108069	1084.84245096634	155.786757417551	2062.45222269248
814.437152192581	159.77301661566	1404.54910349946	1292.79284281069	263.101255934443	1906.76750910494	930.479267825156	198	1713.54412593525	1338.86217641971	160.281237201061	1931.00726186429	1004.04449151783	187.101082211157	1891.93325050292	1143.56771574332	149.004650252251	1779.51847170816	905.966543830648	151	1826.64228285029	1190.59602033833	207.061156926116	1893.68994815515	843.247176725919	164.848443400415	1399.08964756165	1778.83000166263	222.30456599028	2713.88037397781	1087.83104359032	223	1960.00156970712	1394.76820337541	146.881540282327	1984.44254631816	987.375782345285	211.143560600305	2210.52390866755	1431.62617400878	135.005977475148	2755.21101218906	922.933693381162	151	2169.3932432902	1084.51040338161	155.758063385709	2061.81233726259
814.527485459477	159.73561138665	1404.37173202575	1292.65958106992	262.958493500288	1905.98691281261	930.45301678686	198	1713.47633175142	1339.47092604643	160.232089897587	1930.34125890037	1004.2940630968	187.1138973788	1892.76356676966	1143.78893913857	149.001327222897	1779.66898339769	906.0826748382	151	1827.18767954088	1190.98690193012	207.04072345119	1894.13111032109	843.775853977476	164.79571018864	1400.70044692335	1779.52120335024	222.249036164648	2715.86761823528	1088.03248989378	223	1960.89031541288	1395.43264713458	146.8861026212	1986.23907283492	987.239028192158	211.141805662346	2210.40031866728	1431.89403920427	135.001327222897	2755.39746496685	922.795554761113	151	2168.88871506223	1084.10281054913	155.722282269255	2060.82243665691
814.678319833971	159.688200069599	1404.08565318832	1292.65323364423	262.798786836899	1905.18976729473	930.44746752732	198	1713.19336227736	1340.23043589431	160.183050304197	1929.64791453097	1004.45005313814	187.118459717673	1893.12496268438	1143.9455127574	149	1779.40768535784	906.019564159724	151	1827.18301624116	1191.33891448471	207.023779221956	1894.32947575381	844.195763219924	164.741214797998	1402.07243275511	1780.00914486556	222.200419548718	2717.42683963045	1088.1219162904	223	1961.44720205874	1395.90375230847	146.898917788843	1987.51993827382	987.055694041404	211.137676600757	2209.76496349664	1432.07420342863	135	2754.84594544369	922.588599135232	151	2167.75292305212	1083.63559510545	155.677510428944	2059.37333691459
814.874975968043	159.634684168441	1403.69340472611	1292.76939129388	262.635482334591	1904.42639133999	930.461740580477	198	1712.70567402962	1341.08515833259	160.137938458618	1928.99512945507	1004.50772306391	187.1138973788	1893.03935768528	1144.08057834808	149	1778.88156937567	905.796055729043	151	1826.68665296972	1191.67272838866	207.011749802608	1894.37416180631	844.501292749328	164.693404144731	1403.14616351923	1780.35299526873	222.167430656609	2718.56062213742	1088.10483338031	223	1961.62755138036	1396.23574906404	146.917596325812	1988.28555394059	986.830877097826	211.130209520281	2208.53478512204	1432.19371248309	135.001327222897	2753.42852711468	922.341489737309	151	2165.93893000688	1083.1484599623	155.623831786216	2057.42132988904
815.09731854649	159.57844674192	1403.17244178991	1292.99480680946	262.480949417978	1903.70757999426	930.485966878397	197.998672777103	1711.9917382783	1341.97801763255	160.098803729047	1928.39381570085	1004.46479861076	187.101082211157	1892.56883677524	1144.22801375754	149	1778.26042228977	905.437332763989	151	1825.79015516975	1192.0005462122	207.004650252251	1894.36386751555	844.707708946528	164.658046005737	1403.88942448006	1780.6379775882	222.154089073469	2719.31021746492	1088.00025793531	222.998672777103	1961.40681147243	1396.508014394	146.938843073884	1988.60368284078	986.575595111138	211.118547631051	2206.71556999254	1432.30396545238	135.004650252251	2751.17928994456	922.091251171636	151	2163.50832362575	1082.69214885642	155.563880111087	2055.00161073248
815.335057062489	159.523433635386	1402.49876772558	1293.32994736256	262.344600040119	1903.03173295329	930.514871440651	197.995349747749	1711.02313750754	1342.8844115057	160.067134401264	1927.83503309119	1004.32505746523	187.082403674188	1891.82024172797	1144.41084057073	149.001327222897	1777.72157443798	904.973900039343	151	1824.61981304033	1192.32779036827	207.001327222897	1894.40587608777	844.842545201494	164.638131218163	1404.30857860728	1780.9430328499	222.159983372839	2719.7606991727	1087.83071907874	222.994022524852	1960.79106352932	1396.79698768345	146.95927654881	1988.60542054503	986.311381449696	211.102409434054	2204.41731575332	1432.47316830614	135.011749802608	2748.32377723002	921.880545904404	151	2160.6459890741	1082.32270142575	155.503142618089	2052.25091535571
815.590639225132	159.4728259506	1401.6701447389	1293.79296274872	262.231768026354	1902.4075654866	930.550902385097	197.988250197392	1709.79124099686	1343.82765894162	160.043377896984	1927.32933324422	1004.10440362307	187.061156926116	1890.94150495934	1144.6514062067	149.004650252251	1777.44007680168	904.447223571182	151	1823.33764962579	1192.66224518944	207	1894.61100389481	844.942314201559	164.63276597554	1404.46081376782	1781.33604010967	222.179966415029	2720.04730906914	1087.62326304307	222.983599945141	1959.83905294354	1397.16706401512	146.976220778044	1988.47545158191	986.062051948728	211.082403674188	2201.84638093039	1432.76981765279	135.023779221956	2745.25122748871	921.749777275227	151	2157.6410007653	1082.09069136265	155.447351004169	2049.3963215249
815.890748728662	159.429282196417	1400.72896295583	1294.42957320495	262.144714099915	1901.87432754253	930.615825108466	197.976220778044	1708.33496628937	1344.89316908973	160.029756697104	1926.94181281232	1003.83837615416	187.04072345119	1890.1134930863	1144.97861953472	149.013077025505	1777.58787508936	903.912562906176	151	1822.13680392727	1193.02028635823	207	1895.09454042296	845.042637281646	164.638927335854	1404.45235059666	1781.85192131186	222.208256003284	2720.35071909798	1087.40304886918	222.964470975436	1958.66504602785	1397.65696125636	146.988250197392	1988.43600056569	985.849979570768	211.061156926116	2199.27789095512	1433.24779059273	135.042050674087	2742.46253447959	921.727663255975	151	2154.84705870283	1082.02937717079	155.40217207902	2046.72592891012
816.282745548121	159.396013269906	1399.78080593489	1295.3028688491	262.082229950902	1901.51874091354	930.750932956196	197.95927654881	1706.76347207555	1346.21622593985	160.029477080364	1926.81970226818	1003.58259719895	187.023779221956	1889.53857684192	1145.43827646017	149.029756697104	1778.32461896568	903.442091372916	151	1821.23490668639	1193.43544637041	207	1895.97086095151	845.176437569774	164.652663538087	1404.42984159254	1782.49915543097	222.237269206585	2720.88523299724	1087.19363184244	222.935497326854	1957.44047461522	1398.28449929731	146.995349747749	1988.72636636068	985.694710406577	211.04072345119	2197.01900897193	1433.94168788485	135.067134401264	2740.49149923484	921.831873653935	151	2152.63396016286	1082.15195892733	155.370227941671	2044.55143250841
816.825203563339	159.376527022013	1398.98781037114	1296.47716958434	262.041506499712	1901.46926935331	931.009090073799	197.938843073884	1705.25351368483	1347.95038567847	160.046156751962	1927.18023535213	1003.40472156542	187.011749802608	1889.4052187253	1146.07965153161	149.057123506049	1779.77077230646	903.113731083801	151	1820.83935451787	1193.94729636717	207	1897.33280202887	845.37376842215	164.670421040466	1404.56294998787	1783.2709431029	222.263323782165	2721.87858712813	1087.02256540782	222.898119622694	1956.37612847875	1399.05592557476	146.998672777103	1989.5720665017	985.614201030444	211.023779221956	2195.36049631125	1434.8676778861	135.098803729047	2739.80976861086	922.070437947329	151	2151.3238061111	1082.45647868498	155.352769762686	2043.15270600379
817.575340304379	159.373037776321	1398.54927074687	1297.99774155703	262.019054500653	1901.87627994745	931.442996501592	197.917596325812	1704.02839506968	1350.22974921212	160.083557173799	1928.27693362158	1003.37537078047	187.004650252251	1889.86812537077	1146.94887337199	149.09668595068	1781.98796164895	903.001361958397	151	1821.12451693882	1194.5980867607	207	1899.23837900927	845.658777540096	164.6887415442	1405.01099272343	1784.14863570017	222.284044601976	2723.52301661183	1086.91857980349	222.855112176798	1955.68763856756	1399.96634184807	146.998672777103	1991.13859175347	985.62643180166	211.011749802608	2194.52342971238	1436.02202846275	135.136611235721	2740.72836547783	922.443744082464	151	2151.13148265863	1082.92656489772	155.348521788099	2042.72378144495
818.573696413331	159.388123164079	1398.66851471945	1299.87787787775	262.011954950295	1902.88457439616	932.093270489878	197.898917788843	1703.32108651025	1353.13005123333	160.143386877018	1930.3456862019	1003.55397089538	187.001327222897	1891.02313409993	1148.07356628324	149.146906347334	1784.95204350124	903.162630832617	151	1822.19855210048	1195.41908260574	207	1901.6933938524	846.049354809455	164.706654893523	1405.89094495365	1785.10966531062	222.298181430295	2725.92039732774	1086.9104444614	222.810536639507	1955.55041504355	1401.00104628843	146.995349747749	1993.47863914826	985.748034117509	211.004650252251	2194.63186430729	1437.38297417761	135.178400051946	2743.34195701011	922.945019230824	151	2152.13277415658	1083.53864918338	155.353983275668	2043.34259059886
819.830517813173	159.422353462056	1399.51608873138	1302.08614919809	262.017727277756	1904.60841617667	932.97611527204	197.8861026212	1703.3336190305	1356.63554698557	160.224463328309	1933.54625437046	1003.97762393271	187	1892.88030675532	1149.45118838415	149.202962588463	1788.53374478344	903.624056574058	151	1824.06574463278	1196.42222590486	207	1904.63302090597	846.555226342391	164.722271969433	1407.25063862984	1786.12919075591	222.305799737578	2729.04279697644	1087.02048039606	222.767293132287	1956.05800025192	1402.13175992477	146.988250197392	1996.4994691284	985.991582440672	211.001327222897	2195.68074325254	1438.91035387585	135.220340094979	2747.48530247984	923.560907208552	151	2154.23725331118	1084.26490265174	155.363994170883	2044.94514408367
821.316448185593	159.475083614918	1401.18256990454	1304.54872395738	262.035529024564	1907.08934237767	934.074119208184	197.88021305943	1704.18280790176	1360.62636980537	160.320895287215	1937.89259777845	1004.64868310553	187	1895.36178928873	1151.03802360543	149.257457979105	1792.50505231134	904.3701053548	151	1826.61480210889	1197.58868160197	207	1907.92327327688	847.175097139766	164.735628542105	1409.05232653435	1787.1783206675	222.306613010723	2732.70635835866	1087.25864216265	222.726136403815	1957.19123917474	1403.31210134261	146.976220778044	1999.94661470638	986.360188388811	211	2197.54335057787	1440.53995631941	135.257457979105	2752.75115608925	924.267054001061	151	2157.20603831192	1085.07293462873	155.371617215767	2047.33635481899
822.967351186683	159.543977741366	1403.65478861172	1307.16143580959	262.064502673146	1910.28407941543	935.339872462052	197.881452368949	1705.87632645171	1364.89228293271	160.423042863408	1943.21872634192	1005.52927050492	187	1898.30940467098	1152.74670074038	149.301945603018	1796.56176950626	905.340941020383	151	1829.62910673414	1198.86774932826	207	1911.37321812154	847.892958530984	164.743920995169	1411.17966527807	1788.21512844559	222.298588515133	2736.59027113319	1087.61447425586	222.685412952625	1958.81821366182	1404.47035411573	146.957949325913	2003.43282593935	986.838580561386	211	2199.99369066753	1442.17902246591	135.284568096502	2758.55518532674	925.024242338585	151	2160.69286585129	1085.92368918418	155.371622022941	2050.2266382943
824.684966009821	159.623732531983	1406.8036832321	1309.79692554708	262.101880377306	1914.05522740114	936.695596392151	197.885840763338	1708.29906832288	1369.15210415145	160.517723359125	1949.17693939314	1006.54333431276	186.998672777103	1901.49341492529	1154.45056262086	149.328876968758	1800.35315996052	906.434798228237	151	1832.8016595839	1200.1776222624	206.998672777103	1914.74713082822	848.678310494978	164.746847239507	1413.46429090066	1789.18657706115	222.280180098021	2740.29823864162	1088.05591760375	222.641633533025	1960.72265418703	1405.51802648863	146.934192821633	2006.50633617317	987.397609602205	211	2202.74204838564	1443.71919492531	135.297383264146	2764.22033497502	925.784564573779	151	2164.29333501819	1086.77527092491	155.359867413159	2053.27378400125
826.356156850929	159.707329039304	1410.39822646333	1312.32848190813	262.142233377408	1918.18497808144	938.049020572262	197.887839628708	1711.22683474331	1373.10802012115	160.590897286735	1955.28300775987	1007.58717826516	186.994022524852	1904.65127196512	1156.00093124811	149.33343930763	1803.53536776811	907.523004655369	151	1835.79634133237	1201.41496672251	206.994022524852	1917.80165506941	849.490505980906	164.741995946635	1415.71589868337	1790.03131348807	222.247709545175	2743.43395250967	1088.53622607472	222.590723563449	1962.64893688977	1406.35672500309	146.905846523204	2008.73827185328	987.992080320865	210.998672777103	2205.49155982282	1445.04459092678	135.29351402259	2769.10280594002	926.494404517689	151	2167.62490596274	1087.5844711901	155.33423747378	2056.14810662902
827.868074943585	159.784632028505	1414.14321543019	1314.6422054173	262.177508410198	1922.40540525227	939.306129569386	197.880392344938	1714.36761467693	1376.49170750233	160.630822571776	1960.99775270325	1008.54812349727	186.982272722244	1907.52612109071	1157.25044240407	149.314760770662	1805.83092780774	908.476917347119	151	1838.31013831853	1202.47210047335	206.982272722244	1920.32134900326	850.280239494288	164.727718269802	1417.76756376305	1790.68339096572	222.198299918359	2745.69077746032	1088.99984924404	222.529566637332	1964.36518968475	1406.89564642269	146.875138566887	2009.81963654831	988.570449345497	210.994022524852	2207.98030517621	1446.05005110553	135.273080547663	2772.69029787326	927.104637717969	151	2170.37735117944	1088.3093848177	155.29685976962	2058.57925885877
829.127985496956	159.844863320374	1417.7263451709	1316.65274741144	262.198579535098	1926.43511810973	940.388647095776	197.856613122982	1717.41000186333	1379.11366358462	160.632149794673	1965.82475626918	1009.32373543791	186.959820723185	1909.90924989837	1158.08101366204	149.27746373897	1807.08167376248	909.190245735559	151	1840.13424451228	1203.25353866232	206.959820723185	1922.16005132657	850.995908262931	164.705851989773	1419.49814261111	1791.08186241018	222.131012631547	2746.91113950767	1089.3920081528	222.45734948153	1965.7045757743	1407.06867364299	146.84537917001	2009.62785250219	989.087237597509	210.983599945141	2210.01969080189	1446.66653402111	135.238758811913	2774.68984258946	927.581355457964	151	2172.36109840402	1088.91997802294	155.250508614521	2060.40024047421
830.076268516564	159.877590772283	1420.87215633297	1318.31089437797	262.195500849012	1930.02650541321	941.246298157361	197.811587152954	1720.07731868687	1380.89137464107	160.595547538986	1969.40288267296	1009.84037615376	186.922420301349	1911.66458804586	1158.42761915083	149.228859588786	1807.27486643642	909.600834431271	151	1841.18232084595	1203.69521343236	206.922420301349	1923.2597281041	851.591762873934	164.679121868239	1420.84926002302	1791.18537728991	222.048201872521	2747.11329913216	1089.66932541713	222.376267468017	1966.59238371796	1406.85212517872	146.820383356211	2008.25435886038	989.507268106444	210.963143752539	2211.50915780549	1446.87393166081	135.195235687953	2775.06756316265	927.909237945067	151	2173.52139425473	1089.40080823481	155.199885940204	2061.56353381883
830.691861453086	159.876263549386	1423.37819601356	1319.60316625332	262.16187694818	1932.9918835918	941.860042680326	197.743781109217	1722.16664932987	1381.85425301348	160.529473161733	1971.55285710361	1010.06509732292	186.86836292559	1912.74646200222	1158.28722691013	149.179089624869	1806.54535686487	909.699223835471	151	1841.5030422025	1203.77380598781	206.86836292559	1923.6629853235	852.032925248346	164.651618097853	1421.82066232261	1790.98358618708	221.954974029972	2746.46577069817	1089.80499265325	222.291343737799	1967.03901452296	1406.27131776912	146.803698947011	2005.97087998708	989.813359878615	210.929519851706	2212.43703518815	1446.70836938602	135.148210852555	2774.03796450725	928.096094413149	151	2173.92806964008	1089.75534540293	155.149538075452	2062.13812944031
830.990775961171	159.838885845226	1425.13221596149	1320.54485245522	262.095371934895	1935.21568350332	942.239756664214	197.655661817743	1723.56444880305	1382.12576361785	160.446822085364	1972.28814650432	1010.0036055845	186.79798867075	1913.17579941194	1157.71876161562	149.13740940187	1805.11838997215	909.525178830561	151	1841.24112675153	1203.51022094414	206.79798867075	1923.47965785881	852.300645103419	164.629351904322	1422.4539533471	1790.49741557843	221.860212861786	2745.23573577397	1089.78989824845	222.209390496347	1967.11672101315	1405.39589059401	146.797835577687	2003.16118666263	990.007630463192	210.880392344938	2212.8583871817	1446.25737635617	135.103207600203	2772.00126980463	928.167491864121	151	2173.73953644214	1090.00637665315	155.103207600203	2062.27785861181
831.02101784665	159.768231973646	1426.11985758044	1321.17611915353	261.998418785329	1936.66499237822	942.417546966192	197.553340297067	1724.24926634923	1381.89698480311	160.361618738405	1971.79869270778	1009.69978645372	186.713850688827	1913.02949254496	1156.83216599456	149.109876376587	1803.26475027485	909.156530183247	151	1840.59883143062	1202.96611036663	206.713850688827	1922.86422722576	852.396657732939	164.615567616589	1422.81243722708	1789.78505467838	221.773420793209	2743.71362177319	1089.63607837748	222.13740940187	1966.92222243283	1404.33247085312	146.803698947011	2000.22904267552	990.106301771933	210.814932899984	2212.86878377231	1445.64208962516	135.064502673146	2769.44824010383	928.159029017505	151	2173.15219208732	1090.18878571461	155.064502673146	2062.1737771389
830.850340988034	159.673127237637	1426.41656783514	1321.55101166519	261.879171986955	1937.38644838146	942.436486957041	197.445332480036	1724.28081157857	1381.3884584244	160.286947477323	1970.41479173109	1009.22322766033	186.620386784953	1912.41717093026	1155.77395823265	149.098013173577	1801.25067498609	908.692323302929	151	1839.79077495068	1202.23783705642	206.620386784953	1921.98492412517	852.341430307365	164.611791026013	1422.96273326479	1788.92726892107	221.702704649233	2742.14985344004	1089.36904840831	222.080902728005	1966.54372949811	1403.20189918715	146.819056133314	1997.51591270313	990.137645176356	210.734284163753	2212.57618568836	1444.99731981753	135.035529024564	2766.86064284428	928.111955223605	151	2172.35728376869	1090.34592541192	155.035529024564	2062.00820808468
830.553001677871	159.563880111087	1426.15990998595	1321.72989886295	261.748164162582	1937.4860912547	942.340031856531	197.339687930007	1723.76803761723	1380.81386657684	160.231768026354	1968.53842025437	1008.66150680301	186.523173815352	1911.46388645758	1154.71299416666	149.098803729047	1799.30475653954	908.235553390542	151	1838.99950205046	1201.4452468417	206.523173815352	1920.99769890402	852.175401801116	164.616519581224	1422.96896388303	1788.02569981619	221.653321284434	2740.72738737375	1089.02885308304	222.041506499712	1966.04900543015	1402.1342588298	146.840728917759	1995.26921903089	990.130725198346	210.641633533025	2212.08612391597	1444.45008769505	135.016400054859	2764.63516838902	928.062403901326	151	2171.51240096466	1090.51777128766	155.016400054859	2061.9180549124
830.20132865978	159.452519943772	1425.522059444	1321.77422567044	261.618104828074	1937.11201596869	942.165061482438	197.244469088175	1722.84400169222	1380.35198500692	160.199712216917	1966.58027376336	1008.10605042707	186.42795497352	1910.30037624121	1153.81530202927	149.107059686304	1797.61206926897	907.876508964678	151	1838.35612846907	1200.71524817656	206.42795497352	1920.03863710467	851.95234781445	164.625850310349	1422.8931261879	1787.18313935651	221.62583724118	2739.56575001307	1088.65957945061	222.017727277756	1965.48635493708	1401.25241277289	146.862061541382	1993.6437654244	990.116645162252	210.54185235232	2211.4942093859	1444.1098074027	135.005977475148	2763.05152932102	928.04417981411	151	2170.73675872833	1090.73962067946	155.005977475148	2061.98203098719
829.852159194552	159.350651984319	1424.68660197558	1321.73973116596	261.500078387684	1936.43754785968	941.937598582035	197.16463362509	1721.64929541252	1380.13076968994	160.192260125974	1964.90420318631	1007.64077993975	186.339687930007	1909.06146690571	1153.22206781741	149.115224601697	1796.31209897067	907.68132140566	150.998672777103	1837.93542752473	1200.16493478	206.339687930007	1919.21930604831	851.7353568322	164.634502983048	1422.799781843	1786.50215979256	221.619432050971	2738.73621292903	1088.30966982282	222.005977475148	1964.89547953805	1400.66524381975	146.877417048997	1992.72203415737	990.119846529209	210.440770141163	2210.88149366924	1444.0548639905	135.001327222897	2762.26308584047	928.083975570667	151	2170.11198605685	1091.03444647525	155.001327222897	2062.22063664489
829.551273121218	159.266514002396	1423.82214530436	1321.67857230405	261.402700997825	1935.63703149074	941.676823934882	197.102663425828	1720.31749049557	1380.232270381	160.206667143722	1963.78852501943	1007.33408555742	186.261846594691	1907.88378990002	1153.02887276604	149.11978694057	1795.51380354751	907.687489390679	150.995349747749	1837.77026901353	1199.88439965176	206.261846594691	1918.63461118413	851.590102997068	164.636983280774	1422.76573155772	1786.07210966742	221.62971000713	2738.30021731762	1088.02691536619	222.001327222897	1964.32947218684	1400.45991552571	146.881719567835	1992.54899984912	990.164293994978	210.344250268879	2210.33783436972	1444.33600069451	135	2762.35195077372	928.2069539943	151	2169.72135886569	1091.41689454649	155	2062.63354249828
829.331145852445	159.205871026031	1423.07652587967	1321.637467432	261.33039613223	1934.87594858232	941.399402136547	197.058450728946	1718.97701165047	1380.70673339332	160.23948250901	1963.42180770137	1007.23292291908	186.196127329702	1906.91426699338	1153.27802721948	149.119874853948	1795.30609336107	907.903970637587	150.988250197392	1837.87884725744	1199.92765724843	206.196127329702	1918.37205803499	851.57606706746	164.62855650752	1422.87701316353	1785.96266047106	221.649602007455	2738.31782594608	1087.85570475453	222	1963.86226474122	1400.69305446376	146.873013177841	1993.14033388964	990.266537164801	210.257284255818	2209.95137187966	1444.96433339762	135	2763.33788635185	928.430997066604	151	2169.64460365556	1091.88610744917	155	2063.20874157375
829.218476442308	159.170611100238	1422.57898460556	1321.66287636643	261.284770336899	1934.30742396535	941.12568168467	197.029756697104	1717.75472873656	1381.58954702819	160.28747653407	1963.9261780743	1007.36578892299	186.142588710868	1906.29618099475	1153.96362496372	149.117482266015	1795.76241768855	908.320965000985	150.976220778044	1838.27584649305	1200.31141547543	206.142588710868	1918.50975203712	851.742953549694	164.606073508842	1423.22822644885	1786.22443565916	221.673389095498	2738.86296550827	1087.83697522477	222	1963.592800284	1401.39088752378	146.851766429769	1994.49355302827	990.439507542367	210.183312162058	2209.81148267284	1445.91800667654	135	2765.20243812392	928.767961519402	151	2169.96617122659	1092.42992246233	155	2063.94495262333
829.236282720936	159.160315988624	1422.44903980203	1321.80006831539	261.266498884769	1934.0750452539	940.883761801905	197.013077025505	1716.7872569887	1382.9090365159	160.348119510435	1965.39128072936	1007.7393842142	186.100130951944	1906.16643645499	1155.04317112379	149.11925992165	1796.95236835994	908.913081485703	150.95927654881	1838.9882447355	1201.01942713003	206.100130951944	1919.12221746435	852.121868929823	164.567399581404	1423.90598441914	1786.88357596094	221.695003373688	2740.00707687385	1088.00437424595	222	1963.62982171063	1402.54645418346	146.821360807868	1996.57688785118	990.69186464002	210.1239101739	2209.98843715995	1447.1461069512	135	2767.88070151615	929.22207595453	151	2170.75130939113	1093.02911872788	155	2064.84307163691
829.401517696056	159.171803933371	1422.78607167756	1322.0890740178	261.273684310677	1934.30061529055	940.707201813204	197.004650252251	1716.20642570406	1384.67944221131	160.419523393091	1967.87114280621	1008.34048161962	186.067134401264	1906.63443222447	1156.45182216538	149.130309851513	1798.93082330149	909.647809653953	150.938843073884	1840.04435931099	1202.00856226472	206.067134401264	1920.2707632525	852.723585043895	164.515183378293	1424.9759946546	1787.94213450315	221.710766799658	2741.80653118314	1088.3791906919	222	1964.07169589401	1404.12463955597	146.787298892152	1999.32674262546	991.026275288673	210.078884203872	2210.52079065757	1448.57866193807	135	2771.25874707043	929.788145864739	151	2172.03105390672	1093.6612801708	155	2065.90726301222
829.717457475635	159.202016891472	1423.65124663912	1322.54997141594	261.302570045881	1935.06714332811	940.624082136455	197.001327222897	1716.11737376119	1386.87447787321	160.49887109887	1971.36293180836	1009.13354181496	186.042050674087	1907.75083942495	1158.10968106254	149.154353631104	1801.70902282699	910.482459790823	150.916269102915	1841.4511769782	1203.21560748355	206.042050674087	1921.98297964405	853.535338054048	164.451807653173	1426.46224756418	1789.3807932152	221.720255879036	2744.27626864382	1088.96511068884	222	1964.97421978731	1406.06702694695	146.755351626317	2002.64140817293	991.435713789244	210.046700926337	2211.39658199885	1450.1356941468	135	2775.16432230201	930.450118037647	151	2173.77818546921	1094.30505457047	155	2067.12738860822
830.168028057512	159.24553445321	1425.04266648409	1323.17950239924	261.347067097104	1936.39264047355	940.65152129023	197	1716.56993943965	1389.42203716948	160.581681857896	1975.77555275159	1010.0583533746	186.023779221956	1909.48087100305	1159.92232733025	149.191119044217	1805.218380608	911.364602296342	150.894267536593	1843.16817580323	1204.55881889525	206.023779221956	1924.2280042214	854.519674462209	164.38417555392	1428.3334092288	1791.14808682539	221.726141966036	2747.3739247725	1089.73929665953	222	1966.33060957683	1408.28720034538	146.731481791209	2006.38303637974	991.905213206849	210.025106444853	2212.55456713145	1451.73789947233	135	2779.37916044458	931.182399832388	151	2175.90824567618	1094.94449728948	155	2068.47355425214
830.717034684889	159.297116065259	1426.87326955951	1323.94617302095	261.398198276416	1938.21297645122	940.789113203309	197	1717.5322635691	1392.19894842691	160.662849281478	1980.90176017161	1011.03571000746	186.011749802608	1911.69751214873	1161.78557909121	149.235959139143	1809.29961511727	912.234382208103	150.874352818591	1845.10441779157	1205.94785791488	206.011749802608	1926.91300629491	855.617054314628	164.318093448522	1430.49613334031	1793.1644778819	221.730674983978	2750.98182911702	1090.65351033288	222	1968.05691397375	1410.67726617602	146.719301145054	2010.37758385358	992.405476151452	210.011749802608	2213.89304389716	1453.30331478509	135	2783.66950782045	931.945465368496	151	2178.28911342447	1095.56062988183	155	2069.8991311067
831.306082054091	159.350825707606	1428.96442384332	1324.78473032191	261.445594116701	1940.37309751929	941.012139527182	197	1718.87937331095	1395.03933971456	160.735616193824	1986.41921168973	1011.97680102493	186.004650252251	1914.19528697965	1163.59158594735	149.282113991221	1813.70937781988	913.031750495208	150.857761060371	1847.12489923766	1207.29058434393	206.004650252251	1929.8878164119	856.75190638784	164.260086094511	1432.80574221648	1795.32359115489	221.736992260808	2754.92620148187	1091.63788319349	221.998672777103	1970.00826555172	1413.11565478829	146.721295272823	2014.44398283441	992.898768639319	210.004650252251	2215.28900638288	1454.75760278626	135.001327222897	2787.81803634884	932.692107057818	151	2180.76262605069	1096.13448727883	155	2071.34634945448
831.866222854281	159.399263641452	1431.07154763987	1325.61251907441	261.478327130832	1942.65239117911	941.278505152343	197	1720.409704376	1397.77051987098	160.794235838882	1991.94188490632	1012.79897767487	186.001327222897	1916.72005998143	1165.24270568212	149.32073824581	1818.15258279635	913.704216121409	150.84537917001	1849.07034656883	1208.50774560916	206.001327222897	1932.96438513105	857.836732601016	164.214040748598	1435.08290008374	1797.49304104066	221.743513910331	2758.99181767618	1092.60450433208	221.994022524852	1971.99822279053	1415.46902350643	146.73667865157	2018.4090413749	993.339480931208	210.001327222897	2216.62272359107	1456.03113755544	135.004650252251	2791.66155116357	933.368628303076	151	2183.1757275452	1096.6406500753	155	2072.76173720149
832.328050444192	159.435319684936	1432.93174531053	1326.34025914905	261.488060137621	1944.80932831644	941.533317144534	197	1721.88538625112	1400.23812338685	160.83536637491	1997.09114920541	1013.44148307252	186	1919.01976833647	1166.66779003604	149.345189110238	1822.34488585228	914.218073802017	150.837760862727	1850.79154492024	1209.54469067272	206	1935.95730118721	858.784755079681	164.181744070663	1437.14114837721	1799.52895400812	221.747207528715	2762.94825250924	1093.4643756421	221.983599945141	1973.83134491565	1417.61260463671	146.762975495821	2022.1260794366	993.684750274571	210	2217.78777235205	1457.06724304884	135.011749802608	2795.09814600496	933.925264290481	151	2185.39172340618	1097.0521127413	155	2074.09486092435
832.637376865957	159.453764594315	1434.31689170183	1326.89467663275	261.471115908387	1946.63130061961	941.723481857849	197	1723.08088604807	1402.33915034004	160.859958870012	2001.57227299589	1013.87669463276	186	1920.89320885072	1167.83846710373	149.352656190714	1826.06723420874	914.565330304306	150.835192651623	1852.17763271814	1210.38196744707	206	1938.71690487918	859.521529273502	164.162855969456	1438.8166399889	1801.29989657683	221.742715744182	2766.59027508748	1094.13955047303	221.964470975436	1975.33650801802	1419.44601621234	146.796604134255	2025.49691050744	993.902102646858	210	2218.70657920076	1457.83479365782	135.023779221956	2798.09822137108	934.325319233553	151	2187.31270230968	1097.34704189126	155.001327222897	2075.31336490488
832.768082507537	159.450921573646	1435.09173386859	1327.2378150584	261.427592784427	1947.993438504	941.811525555382	197	1723.84036418806	1404.03805035813	160.870895399474	2005.24017400531	1014.11425312061	186	1922.22139868564	1168.77465181057	149.342669054208	1829.20693758641	914.765633059905	150.83643363983	1853.1714033565	1211.03721198927	206	1941.15540660226	859.997643167552	164.155403878512	1439.9958722319	1802.708647184	221.725230040347	2769.76439299095	1094.57783623018	221.934170103957	1976.39783027994	1420.91119784534	146.833629367401	2028.47393080113	993.976748744918	210	2219.3314345667	1458.33015601303	135.04072345119	2800.69061759111	934.552199135891	151	2188.88222832845	1097.51679333181	155.004650252251	2076.40059958992
832.731856436732	159.429007920702	1435.2423444524	1327.38319859659	261.363190442512	1948.87903358979	941.788034245789	197	1724.10889963336	1405.37894019765	160.87381134399	2008.11340756904	1014.20014464961	186	1922.99926936617	1169.54126090784	149.319942128118	1831.77999726231	914.864765037878	150.839401694862	1853.79077119746	1211.56353733252	206	1943.26493678882	860.200008497858	164.155315965134	1440.62762312524	1803.71849248357	221.691805774605	2772.37325929067	1094.76713996212	221.892142147546	1976.95996887477	1422.00541892668	146.870488314637	2031.0444867388	993.9178041515	210	2219.64722808524	1458.58776875131	135.061156926116	2802.9415277741	934.616447618601	151	2190.08615750556	1097.57362729548	155.011749802608	2077.35327709899
832.578163176838	159.394186449135	1434.87968858023	1327.39432033435	261.286693485548	1949.38640874389	941.676791282714	197	1723.94297089539	1406.46705577143	160.874352818591	2010.3704376945	1014.20617838403	186	1923.31424236497	1170.2411259682	149.291343737799	1833.90520915975	914.926516835422	150.840033782615	1854.10691094161	1212.0382323362	206	1945.0994750186	860.152272471857	164.159271082241	1440.73718536321	1804.35387017986	221.642271182999	2774.40437544793	1094.73213729097	221.840039344837	1977.04727511975	1422.77695623247	146.904519300307	2033.2371032674	993.757260308654	210	2219.66173627664	1458.67448638192	135.082403674188	2804.92162107445	934.554824739112	151	2190.93889192331	1097.55491715851	155.023779221956	2078.17531693814
832.385259691848	159.356632159241	1434.21558679901	1327.37840089557	261.208063273451	1949.70579646972	941.531220746172	197	1723.49388010773	1407.44752944328	160.876890030076	2012.28876748213	1014.21516536579	186	1923.32872129984	1170.99079309931	149.265715836247	1835.78268595239	915.017740386496	150.834173541776	1854.22396437367	1212.546952672	206	1946.76053199297	859.917189726985	164.16356636017	1440.41608694661	1804.71103922216	221.579663333763	2775.91758645496	1094.53918960378	221.780985090091	1976.74896427407	1423.3290863713	146.932865598736	2035.10792962241	993.544298195605	210	2219.40294695606	1458.68551759975	135.101082211157	2806.69129085912	934.424616071491	151	2191.4771897731	1097.518979202	155.04072345119	2078.87579305917
832.239455927166	159.32807801335	1433.51542971156	1327.45188673237	261.13740940187	1950.07989978174	941.414688762543	197	1722.97202768611	1408.4561137362	160.884775398303	2014.17790037347	1014.30264053691	186	1923.24454268929	1171.8937073525	149.252089829193	1837.64012543617	915.192085154165	150.816687837942	1854.25685465135	1213.16564773044	206	1948.37152330714	859.579451652394	164.164807348377	1439.80426885598	1804.9211253254	221.509817173107	2777.03921129526	1094.27041706578	221.719190514	1976.20196968679	1423.78525039136	146.953299073663	2036.74012079258	993.335577538478	210	2218.9106558858	1458.73065194627	135.1138973788	2808.29047261693	934.295203858528	151	2191.75025261436	1097.53952374256	155.061156926116	2079.46732778054
832.214346479312	159.318639522782	1433.02868682365	1327.71735652549	261.082229950902	1950.74029261538	941.386923120634	197.001327222897	1722.58702393012	1409.58700088927	160.90024501174	2016.28646248709	1014.52234854772	186	1923.24018644127	1173.01595744955	149.257813174623	1839.65272191608	915.476787721508	150.785959251402	1854.28103850586	1213.94215615721	206	1950.02492628618	859.233173528704	164.162239137273	1439.06115049968	1805.12681762091	221.441311615765	2777.9247774855	1094.01256790814	221.66111227397	1975.55780456595	1424.26472925652	146.964470975436	2038.22418099236	993.183714871966	210	2218.23580774075	1458.91490817565	135.11978694057	2809.74945159513	934.233123895358	151	2191.81931888117	1097.68996687912	155.082403674188	2079.97284646257
832.356199248607	159.332728265601	1432.94301814496	1328.23842805037	261.047483974859	1951.86539249436	941.486172535992	197.004650252251	1722.50826912612	1410.87404838443	160.922246578062	2018.75697655644	1014.89590335175	186	1923.44701595274	1174.36661824167	149.287040952922	1841.91232995546	915.86711459574	150.742809219781	1854.33587943778	1214.88526532453	206	1951.77205411437	858.960533538737	164.15462082999	1438.33152436416	1805.4420838528	221.381738604094	2778.71781186407	1093.83382152614	221.612332500614	1974.95053813297	1424.84875592243	146.964470975436	2039.62918634342	993.127298904353	210	2217.44071411949	1459.31484021841	135.118547631051	2811.09679936747	934.289285694329	151	2191.75686567886	1098.02571845833	155.101082211157	2080.42524968217
832.679182612785	159.369709184746	1433.36052838284	1329.034200985	261.035454555511	1953.55587947481	941.729127055036	197.011749802608	1722.84497962216	1412.2988178305	160.950592876492	2021.61968028506	1015.42021534694	186	1923.93982213844	1175.90731826721	149.339949787868	1844.41184339724	916.340623475631	150.690854515393	1854.4376721797	1215.97365860937	206	1953.61816126636	858.820966051782	164.143566162526	1437.72529652181	1805.93199332184	221.338076352769	2779.51551469808	1093.77745798603	221.576428079845	1974.48182053984	1425.56284363391	146.954626296559	2040.98487693117	993.185854373089	210	2216.59987901696	1459.96156782517	135.112832013765	2812.36378566089	934.489646825411	151	2191.64111195343	1098.56783881601	155.113897378801	2080.86242546761
833.171065880304	159.421288700445	1434.29828172678	1330.08380434362	261.046156751962	1955.82873940334	942.115060738336	197.023779221956	1723.64621875842	1413.81172879463	160.981728547869	2024.82702743157	1016.07771832669	186	1924.75243815134	1177.5703126506	149.413926688802	1847.08483261359	916.875616162195	150.638114062708	1854.61787363277	1217.16552127195	206	1955.54599129036	858.84004003073	164.131624656556	1437.30191687532	1806.60141363203	221.314060028455	2780.34340024474	1093.85978674465	221.556160821257	1974.21123911171	1426.3772240705	146.937515850987	2042.26564187949	993.362587098453	210	2215.80735573908	1460.83385354819	135.106182896144	2813.59153829868	934.833711762356	151	2191.56169790841	1099.29941073617	155.118459717673	2081.32558303104
833.799681173428	159.478158145146	1435.70370833033	1331.33346438175	261.077579698651	1958.62164213853	942.633505170547	197.04072345119	1724.90898267557	1415.35172842576	161.012293976983	2028.28289046347	1016.85132488196	186	1925.90231152194	1179.28493878871	149.50192706728	1849.85593128486	917.469243095317	150.593653963645	1854.95227128663	1218.41772194941	206	1957.54233932342	859.010103600623	164.123459741163	1437.07505757821	1807.40662822868	221.308173595171	2781.16858750129	1094.07820692461	221.551175574497	1974.17162427624	1427.22594905755	146.917596325812	2043.40438946793	993.643768610426	210	2215.16266561257	1461.85648837195	135.101880377306	2814.81120798807	935.292903216424	151	2191.59471729485	1100.16154575875	155.113897378801	2081.84351592302
834.52526835848	159.528758171361	1437.48697270633	1332.71075636755	261.125659599262	1961.8208637401	943.269741365286	197.061156926116	1726.60011431892	1416.85846688399	161.0376573209	2031.88059978492	1017.73327643636	186	1927.41428630458	1180.99724331585	149.593975834879	1852.69173701375	918.144549434419	150.56536437539	1855.57101649396	1219.6985675188	205.998672777103	1959.62469908283	859.296010913927	164.1239101739	1437.02188848997	1808.27441294868	221.315908708051	2781.92137520701	1094.41756818629	221.559579630076	1974.37779554785	1428.03389971186	146.898917788843	2044.31672999417	994.007860234076	210	2214.75594243626	1462.92712069142	135.101880377306	2816.02805473451	935.822966857346	150.998672777103	2191.79234960562	1101.07329116102	155.101082211157	2082.42868646632
835.30588825743	159.564862300346	1439.54599456816	1334.13765732727	261.182956828598	1965.28651226548	944.009929640123	197.082403674188	1728.66915831485	1418.27454996267	161.052646977085	2035.51536303584	1018.71799090546	186	1929.30758095784	1182.66858924446	149.679179181837	1855.59910302961	918.935005385745	150.558173783169	1856.61561856666	1220.98303624719	205.994022524852	1961.82690514568	859.641279009623	164.13740940187	1437.08642981197	1809.11945230564	221.329154719241	2782.50867056123	1094.8532994038	221.577384851653	1974.8198927251	1428.73453757247	146.8861026212	2044.91351070862	994.427969825109	210	2214.64341595455	1463.93254364503	135.106182896144	2817.20238987488	936.370857488345	150.995349747749	2192.15759113388	1101.95069718574	155.082403674188	2083.07046239122
836.103113507498	159.580614592975	1441.7685005924	1335.54098945924	261.238665336314	1968.86519850162	944.836299424344	197.09975498826	1731.03881230997	1419.53985683475	161.053054061922	2039.05797228238	1019.79251230898	186	1931.57452959806	1184.26360505287	149.74445275169	1858.59065956852	919.863339588167	150.570992079298	1858.18189368722	1222.24521684208	205.982272722244	1964.17472233384	859.982097618713	164.166383050452	1437.1939856817	1809.86139807405	221.338106715335	2782.840087867	1095.35109107262	221.599953310026	1975.46249200154	1429.27905820909	146.881540282327	2045.1174606883	994.874478435597	209.998672777103	2214.83020597709	1464.77459940929	135.112832013765	2818.24490745822	936.884282934556	150.986922974495	2192.64037049798	1102.7265361187	155.061156926116	2083.74544994409
836.878757962357	159.575131219514	1444.03177219975	1336.85587049929	261.278328763493	1972.39897080267	945.718077795653	197.10924712655	1733.59371412478	1420.57804801649	161.035013174929	2042.32821484138	1020.92239916224	186	1934.14753337919	1185.73188606529	149.779033424331	1861.6309613242	920.914695483555	150.595390971154	1860.25794641347	1223.44580091481	205.958493500288	1966.64701678245	860.25312838463	164.208063273451	1437.25366108647	1810.42936879041	221.333863547922	2782.82161006631	1095.86352953402	221.621448675219	1976.22978144508	1429.63026725177	146.884775398303	2044.85412062269	995.309273649763	209.994022524852	2215.25967375819	1465.3730955898	135.118547631051	2819.02230968386	937.312561306374	150.971570525793	2193.13829464425	1103.3565990314	155.04072345119	2084.42160627788
837.596871929161	159.549120888363	1446.19823563269	1338.03083587409	261.285955332771	1975.73330771428	946.611692017917	197.105382692168	1736.17532162762	1421.30446667993	160.994549543773	2045.09104130813	1022.03995148602	185.998672777103	1936.87317865663	1186.98910158358	149.775710394977	1864.58198716754	922.021367939257	150.619588618803	1862.68876780298	1224.51788925368	205.916442826201	1969.14094886559	860.391399498489	164.256392614069	1437.1630023055	1810.74745557667	221.308783295514	2782.3490716838	1096.32289232727	221.635656057877	1976.99907069295	1429.74011149548	146.894267536593	2044.04422707175	995.687123116324	209.982272722244	2215.83071301241	1465.66884806891	135.11978694057	2819.38898808918	937.610678699995	150.947526746202	2193.52460313076	1103.82318707801	155.023779221956	2085.07254285445
838.219975579976	159.506232285892	1448.11790601647	1339.02387856756	261.246297246617	1978.72562365001	947.456590299543	197.084140681697	1738.59021466533	1421.62929962319	160.930585216742	2047.07151869991	1023.05347720217	185.995349747749	1939.52484428213	1187.92316626932	149.732702949082	1867.2107033097	923.07395240132	150.63119853546	1865.19900594622	1225.3750360734	205.851962870731	1971.47884256885	860.345418903549	164.302033516396	1436.8204986979	1810.74854765025	221.256657775129	2781.31338870339	1096.65408839649	221.636960563098	1977.61806318427	1429.55603106995	146.904519300307	2042.60776901541	995.954760586613	209.958493500288	2216.42356414271	1465.61465928735	135.1138973788	2819.22641300969	937.736870659203	150.915063851928	2193.68217010046	1104.1190060971	155.011749802608	2085.68572194803
838.70827524306	159.450933991499	1449.65213259087	1339.79435918397	261.147218708004	1981.26099617276	948.179047583623	197.042631482211	1740.64162603154	1421.47051016439	160.843797955338	2048.02466433993	1023.86090866651	185.988250197392	1941.84867420376	1188.41693020931	149.655399959881	1869.23124200167	923.94330733616	150.620203551102	1867.46489495185	1225.92402973747	205.761132423289	1973.44110551714	860.077043873276	164.334766530527	1436.13948751206	1810.36951530669	221.174800313142	2779.6204544944	1096.78527788422	221.618893483659	1977.93402645945	1429.02214424885	146.910413599677	2040.49146289651	996.058882262041	209.917770049098	2216.93046447995	1465.17995596102	135.101082211157	2818.47562897389	937.6611346844	150.876872874622	2193.53558606363	1104.24246853804	155.004650252251	2086.2598253734
839.027037867935	159.38777813044	1450.69956716597	1340.30709770156	260.984712509787	1983.26875286591	948.708849429206	196.97974024836	1742.16862347731	1420.78151285436	160.738153405309	2047.80055404242	1024.3761475118	185.974893555147	1943.6128650764	1188.38222093754	149.553252383689	1870.38453543952	924.521017912603	150.583540837314	1869.19678852945	1226.09118523432	205.643370540533	1974.81623329452	859.564988024256	164.346254475274	1435.06368895183	1809.56989521595	221.063878230283	2777.2234616224	1096.66484756203	221.576777613871	1977.83269975872	1428.10063884557	146.906803295012	2037.71090368451	995.953643719851	209.856613122982	2217.28880820191	1464.34834822278	135.082403674188	2817.18330625711	937.365452630287	150.83643363983	2193.0860232651	1104.18503314217	155.001327222897	2086.81275772023
839.151340623172	159.320878131761	1451.22988101089	1340.53415297498	260.762633369472	1984.74100358843	948.990800420891	196.896523301026	1743.08781565	1419.56832024008	160.620386784953	2046.41718871117	1024.55092054123	185.953299073663	1944.67127925384	1187.79026529386	149.439442918267	1870.51934775767	924.74775250206	150.524558351847	1870.22451906759	1225.84346828145	205.500779129891	1975.46537255662	858.813271173855	164.33343930763	1433.57923707574	1808.35254252292	220.929519851706	2774.14880396771	1096.28184134182	221.507616822387	1977.26451698554	1426.7998332574	146.891284629972	2034.37474378331	995.614611370269	209.774209448794	2217.49090866204	1463.1361448395	135.061156926116	2815.50943317621	936.855847242352	150.797721471864	2192.41530538465	1103.93779632885	155	2087.37321853613
839.08193495457	159.254751781934	1451.30136918933	1340.47196882864	260.493944137169	1985.74099088505	949.004573099955	196.796254363015	1743.41398224714	1417.91652806565	160.49887109887	2044.09783440076	1024.38787516691	185.921115796128	1944.99598747093	1186.69850805406	149.326872762363	1869.6491064644	924.633793449895	150.45173689525	1870.53605311283	1225.20599504421	205.338106715335	1975.36061654149	857.850187204084	164.297383264146	1431.72087497868	1806.77394224981	220.779657867194	2770.51852700174	1095.66801612378	221.410213240083	1976.25815752498	1425.18515152337	146.863795849117	2030.69605426816	995.043734961026	209.673127237637	2217.57760672877	1461.59769753806	135.04072345119	2813.70709087638	936.162214933815	150.762730793415	2191.6696960066	1103.4965930828	155	2087.97758847042
838.848878523153	159.191995834377	1451.05564844343	1340.15010603614	260.198833526873	1986.39530785632	948.769963764343	196.684091291949	1743.25291885241	1415.99196399961	160.382145688931	2041.25205966864	1023.94009510553	185.8760898261	1944.67597358877	1185.24717485576	149.225790551206	1867.97068774083	924.250828660438	150.374952662974	1870.26306393965	1224.2619661711	205.162239137273	1974.60163775539	856.728706962653	164.244642811461	1429.57410321852	1804.94969987135	220.623732531983	2766.55203576651	1094.89368173246	221.285633461537	1974.91815329546	1423.386120455	146.827133135329	2026.96940454339	994.271001910448	209.559229858837	2217.60936730188	1459.82623502991	135.023779221956	2812.06189038816	935.335886346714	150.730698742687	2191.0161526291	1102.87158781628	155	2088.65013667029
838.510863581222	159.136204150883	1450.68074865935	1339.63579342764	259.901198170837	1986.85958440415	948.342016737134	196.566417322572	1742.76629979078	1414.01763076138	160.278792861752	2038.38638529686	1023.29814139454	185.816687837942	1943.90015462728	1183.63680536805	149.143386877018	1865.83590584535	923.712423476225	150.303543973144	1869.6384446694	1223.14099041533	204.981321463032	1973.40320591348	855.523510142266	164.184284051494	1427.26407085723	1803.04242153939	220.471648913477	2762.54031944127	1094.05336534922	221.138112181905	1973.39727917648	1421.57911483783	146.784644446359	2023.52853923879	993.34928549976	209.439442918267	2217.63436874491	1457.94844954273	135.011749802608	2810.82229599952	934.443812527306	150.698228120269	2190.59337910477	1102.09330074462	155	2089.38679423006
838.139575063495	159.089586400323	1450.34990140176	1339.01597684628	259.624336294996	1987.27278273494	947.79432049915	196.449982732287	1742.11398347042	1412.22353340855	160.194367604518	2035.98143454537	1022.56814990821	185.742715744182	1942.89123233781	1182.08514873972	149.082229950902	1863.65551650041	923.143831461574	150.243141865278	1868.91567877688	1221.99106549589	204.803698947011	1972.03309043472	854.314081201825	164.125659599262	1424.93968637965	1801.22322184351	220.330195791717	2758.8088265534	1093.23640191246	220.974893555147	1971.86693510818	1419.94687431908	146.738951571458	2020.69331264438	992.342633144584	209.320895287215	2217.66724386209	1456.10136422132	135.004650252251	2810.13644595282	933.555377225223	150.660312069993	2190.4743634317	1101.21107712792	155	2090.14499897355
837.801378810272	159.052473253798	1450.17025248489	1338.38304825031	259.388231928877	1987.71038544313	947.200636652288	196.339687930007	1741.40874835714	1410.80125808947	160.132684680567	2034.37036327344	1021.84722921261	185.655749731121	1941.85311986642	1180.77666702748	149.041506499712	1861.80341353553	922.650025480262	150.196127329702	1868.30550293124	1220.94606066951	204.636897470866	1970.74963033317	853.177887957748	164.076252475754	1422.74677924737	1799.64436339497	220.20201132925	2755.64693456998	1092.51379751566	220.804764312047	1970.47456188376	1418.64363921186	146.689975291497	2018.69725539758	991.318732613104	209.208063273451	2217.68863872482	1454.4150287186	135.001327222897	2810.02577677096	932.734328651152	150.611970311521	2190.66110041035	1100.28826463676	155	2090.84907047053
837.540423461421	159.023779221956	1450.15111488608	1337.81052248897	259.2074052965	1988.16668387523	946.615625354136	196.238491613027	1740.69154557281	1409.85760824795	160.09425937025	2033.66860443136	1021.21054343328	185.559229858837	1940.93583845999	1179.82972058529	149.017727277756	1860.5349961665	922.305140141753	150.159966217385	1867.95077223101	1220.10507604183	204.486838979748	1969.75176586372	852.174896451184	164.040179276815	1420.81016035912	1798.40232498437	220.086263370969	2753.26388345384	1091.92198649321	220.636809557488	1969.32575629137	1417.76060581301	146.638398417049	2017.65821842732	990.3367638888	209.101880377306	2217.66019177529	1452.98272770092	135	2810.39103276614	932.030481946016	150.550000112259	2191.10230957084	1099.38618427884	155	2091.40622577637
837.368229549875	159	1450.20061262662	1337.34134120177	259.091465634857	1988.55159675814	946.068899170836	196.146906347334	1739.93278702701	1409.39964649218	160.077579698651	2033.75273574057	1020.70290503354	185.45814764768	1940.20217180278	1179.27849525858	149.005977475148	1859.92226742155	922.148952415704	150.131624656556	1867.90728604625	1219.51540143238	204.357415207763	1969.12621995846	851.34158458194	164.017727277756	1419.21241392998	1797.5247269296	219.979566525074	2751.74618513893	1091.46555740956	220.480949417978	1968.46861493996	1417.31069882544	146.582558648056	2017.56060890075	989.449327785424	209	2217.55359803977	1451.85736399633	135	2811.06271634651	931.481676877122	150.474293710764	2191.73369363651	1098.56042385851	155	2091.73457233342
837.265410878722	158.976220778044	1450.16542257369	1336.98269271038	259.045293627324	1988.72604227381	945.565392418927	196.061156926116	1739.0628190127	1409.34712692362	160.077556980975	2034.32475098123	1020.34019513357	185.358366466975	1939.64516356155	1179.0762081633	149.001327222897	1859.86728412536	922.191016142552	150.107059686304	1868.17146352574	1219.17112225214	204.249119340425	1968.85526712886	850.690429267744	164.005977475148	1417.98695464401	1796.97872740387	219.876872874622	2751.05058000727	1091.13115903162	220.344600040119	1967.90237278564	1417.2402452717	146.522637902972	2018.26926308085	988.696155254425	208.898119622694	2217.37791685118	1451.04756352861	135	2811.87080052457	931.113877470778	150.388296887365	2192.52279253403	1097.85008773926	155	2091.79716142177
837.196606209957	158.948853969099	1449.88903461755	1336.71961581259	259.068810991419	1988.55770903406	945.097148534332	195.976220778044	1738.01580628837	1409.57131530856	160.088381149336	2035.01729194563	1020.11717441137	185.26438861335	1939.2080142111	1179.12539439151	149	1860.14799558123	922.419974690317	150.083730897085	1868.69203302128	1219.02777805174	204.159983372839	1968.83317486469	850.213119057699	164.001327222897	1417.12054332561	1796.68612574002	219.773258189581	2751.02496123888	1090.89930695465	220.231768026354	1967.59187479321	1417.44532816966	146.461209178311	2019.5640295375	988.106030271661	208.791936726549	2217.18140842518	1450.52801540993	135	2812.68867398567	930.944906798694	150.298443288156	2193.48019069558	1097.27948824428	155	2091.61365226355
837.122471485531	158.913736629031	1449.26382972043	1336.52245224556	259.154962956339	1987.96146848808	944.649400043266	195.886369820086	1736.75767304482	1409.93456773278	160.102409434054	2035.50097723767	1020.01164258963	185.179089624869	1938.81777707735	1179.30700760229	149	1860.50064399067	922.801899681689	150.061156926116	1869.38079189748	1219.01521322514	204.084936148072	1968.91227509426	849.884408330175	163.998672777103	1416.55575739649	1796.5520596418	219.664962322244	2751.44206593496	1090.7535723292	220.143386877018	1967.47603966436	1417.80741291171	146.401207696532	2021.17826947015	987.690964549561	208.679104712785	2217.01791817593	1450.24677162151	135	2813.42592970932	930.978522003434	150.212713525701	2194.62651881973	1096.85484945511	154.998672777103	2091.23881363447
837.014522591213	158.872222622371	1448.26014498889	1336.35919048197	259.290293224352	1986.92242188648	944.2067236327	195.787286474299	1735.2942504906	1410.32369700352	160.1138973788	2035.55778983479	1019.99355504136	185.103207600203	1938.39532901686	1179.516118533	149	1860.68174198263	923.281540758441	150.04072345119	1870.09898537503	1219.06120213318	204.016944229234	1968.93086997026	849.672826642605	163.994022524852	1416.20257785682	1796.49802034783	219.55134449061	2752.05131201976	1090.68643569157	220.077579698651	1967.47873425785	1418.22360677783	146.347306237289	2022.84385504645	987.442945220691	208.560557081733	2216.92268153805	1450.13802255475	135	2814.03230782368	931.199507660217	150.138736624767	2195.96167998629	1096.56691040342	154.995349747749	2090.74923525607
836.860093475216	158.824683837222	1446.93277135131	1336.20505232356	259.454033307809	1985.50125019388	943.754833021896	195.677777489888	1733.66271338213	1410.66446602486	160.118459717673	2035.10726971758	1020.02143418262	185.033623900832	1937.87573841808	1179.67502597451	149	1860.52692979287	923.77534178544	150.023779221956	1870.66111338022	1219.10028960245	203.947526746202	1968.75531325379	849.543948727613	163.982272722244	1415.95549095221	1796.47132677716	219.433582677428	2752.62650951299	1090.69206533047	220.028429474207	1967.51647629715	1418.62019791053	146.303543973144	2024.32663355736	987.328752263836	208.440770141163	2216.87231496003	1450.13127998476	135	2814.45620135295	931.568238483975	150.080902728005	2197.41739924753	1096.39265025571	154.988250197392	2090.20568932641
836.663263949928	158.773942249907	1445.39527119107	1336.04440953556	259.61880000806	1983.81021492046	943.280751190772	195.560557081733	1731.90830094921	1410.92235029803	160.1138973788	2034.1932660133	1020.0502562004	184.966376099168	1937.19884895187	1179.74677230666	149	1859.96099971352	924.177965799252	150.010422579711	1870.83416378187	1219.08535703633	203.869690148487	1968.28647946098	849.462787134626	163.958493500288	1415.70165364948	1796.44764925734	219.315908708051	2752.98556708174	1090.75708559757	219.987970580652	1967.49277060783	1418.9543924629	146.272115513859	2025.44036093551	987.294773818801	208.326872762363	2216.78212437074	1450.15436949734	135	2814.63335085811	932.018441917962	150.041506499712	2198.84801848809	1096.29725378626	154.976220778044	2089.63759224286
836.442573036485	158.723334565122	1443.7890456103	1335.87491946331	259.757983117222	1981.98829964553	942.774672703365	195.440770141163	1730.06861393296	1411.09732614885	160.102409434054	2032.94387041924	1020.03164139415	184.898119622694	1936.31861065592	1179.7258825029	149	1859.0011470183	924.375183895886	149.998672777103	1870.38000997587	1218.98770350683	203.780186923941	1967.47586858388	849.399263641452	163.919097271995	1415.34280866363	1796.42673218889	219.203745636985	2753.02554703249	1090.85597924978	219.948853969099	1967.31795041112	1419.21175316161	146.253961226465	2026.07920105761	987.273519036101	208.225790551206	2216.51970753216	1450.14187558941	135	2814.48566099367	932.464694835333	150.017727277756	2200.0464804112	1096.23789222228	154.95927654881	2089.03533213778
836.227155163872	158.674192068822	1442.25181021996	1335.71058297969	259.846779613391	1980.17337481498	942.236090285986	195.326872762363	1728.16826056284	1411.21995108577	160.087053926439	2031.52848088823	1019.92566813092	184.826887850279	1935.21258224709	1179.63786833293	149	1857.75122636884	924.269920051005	149.984927168038	1869.11163232186	1218.80230337996	203.680431935682	1966.33333941357	849.32601270371	163.86259059813	1414.81351669734	1796.42067841562	219.103476698974	2752.72986688502	1090.95369733107	219.904641272216	1966.92722954888	1419.40003394478	146.247020143824	2026.22662821573	987.200272717594	208.143386877018	2215.94530324627	1450.04534694524	135	2813.94208053923	932.819326480215	150.005977475148	2200.79246428586	1096.17019150891	154.938843073884	2088.35584094699
836.051784297175	158.628901471585	1440.91079374436	1335.57681235434	259.870894150905	1978.49926612397	941.679561151571	195.227117774103	1726.24245308142	1411.33943239222	160.074233951621	2030.14723436526	1019.71016928971	184.753338664406	1933.90179102519	1179.53083872718	149	1856.3911246701	923.809788718105	149.964470975436	1866.96750291674	1218.54540578275	203.576957136592	1964.93433984381	849.220214105154	163.791936726549	1414.09630506802	1796.4387247643	219.021586974537	2752.17857257032	1091.0098874078	219.853093652666	1966.30761344154	1419.53618490425	146.250434145469	2025.98337986669	987.02903618787	208.082229950902	2214.96499852622	1449.84510407173	135	2812.98264185957	933.014036576392	150.001327222897	2200.92156861573	1096.05767295664	154.917596325812	2087.5461321722
835.954876060615	158.58898655594	1439.87347598793	1335.51174759364	259.828433692207	1977.08719801687	941.140803584595	195.149364352165	1724.3580702458	1411.52673851563	160.069152925397	2029.0011428348	1019.39613906114	184.683140032737	1932.46530127628	1179.47095403503	149.001327222897	1855.16263696637	923.016366313818	149.935497326854	1864.06151646114	1218.25961164634	203.483603863772	1963.4221271343	849.066388637807	163.714633737349	1413.2296454949	1796.49557174178	218.963345992936	2751.54694143552	1090.9977542024	219.798364634434	1965.5176685625	1419.65603188039	146.262463564817	2025.56590619516	986.748321252733	208.042833722609	2213.57176762046	1449.55930836483	135	2811.67768741791	933.017134666739	150.001327222897	2200.38319897924	1095.87931759831	154.898917788843	2086.57391001361
835.975405735646	158.556523661666	1439.25187855805	1335.56397008912	259.732280746617	1976.06864691989	940.676970263951	195.099957228657	1722.64415663754	1411.86903831524	160.077579698651	2028.32423215896	1019.03066587249	184.624082303222	1931.04472223269	1179.53851979497	149.004650252251	1854.33689166407	921.988540536982	149.898119622694	1860.68841566527	1218.01105081883	203.415080188412	1961.99182999052	848.858643125913	163.641459809738	1412.31284442756	1796.60536102048	218.933586596059	2751.09435194618	1090.91227144357	219.748519496042	1964.69714607952	1419.80481137954	146.28442056566	2025.29218021003	986.384478734339	208.023704752903	2211.86784724853	1449.253098656	135	2810.2197448876	932.84855606657	150.005977475148	2199.27931916084	1095.63989607811	154.8861026212	2085.46056907165
836.151591897761	158.534203820414	1439.16205447538	1335.78778281182	259.610313976481	1975.58293441769	940.359923884705	195.083012999424	1721.28744315899	1412.46477811767	160.102663425828	2028.36136868905	1018.69327686901	184.584157018181	1929.82248947694	1179.81970348922	149.011749802608	1854.17791187308	920.890477696769	149.856439399695	1857.27406477602	1217.8830283006	203.38690470598	1960.8654935025	848.603129350462	163.584157018181	1411.4894173838	1796.78772386047	218.936123807544	2751.12456219826	1090.77548987606	219.715781674738	1964.04690824614	1420.0334896862	146.318441181935	2025.52686191034	985.996372116925	208.023704752903	2210.05361504385	1449.02671803887	135	2808.91655417938	932.57525049165	150.017727277756	2197.8606544498	1095.37090521778	154.881540282327	2084.3023421613
836.51628210129	158.525029957054	1439.72302003741	1336.23786752789	259.499609251647	1975.77799129195	940.261672434233	195.101284451554	1720.51118892442	1413.40753990247	160.145504655385	2029.35532157485	1018.47962009998	184.571368042983	1928.99498848871	1180.38873809353	149.025106444853	1854.89144247305	919.914507549583	149.816514114655	1854.28917657602	1217.96189568465	203.410683927936	1960.25668404897	848.319893146089	163.552663313569	1410.92134070314	1797.06377150709	218.974310047249	2751.92014533322	1090.6307920044	219.712629530954	1963.78413782654	1420.38561784691	146.367596213553	2026.59176622119	985.659759394603	208.044160945506	2208.38092611616	1448.99767910768	135	2808.13355684254	932.295597107496	150.041506499712	2196.46906494716	1095.12642193553	154.8861026212	2083.25889750056
837.092004998937	158.53301098728	1441.04135221207	1336.96132629778	259.440173426153	1976.79653328079	940.438826825572	195.155341827313	1720.53253848181	1414.76854457638	160.205072859882	2031.5108745385	1018.47991914721	184.590134493329	1928.73768910739	1181.29424048598	149.046700926337	1856.58754423125	919.240368305114	149.785020410043	1852.1533536567	1218.32073972932	203.492659887063	1960.33573748605	848.038437462133	163.552663313569	1410.75389755053	1797.45150448202	219.049609363906	2753.6732748638	1090.53153563102	219.750117866168	1964.08861392541	1420.8835912178	146.433055658507	2028.67700345326	985.444345298762	208.088207426049	2207.08650498061	1449.26535412463	135	2808.19495463895	932.110340772383	150.082229950902	2195.44845393337	1094.96713976957	154.898917788843	2082.51339958013
837.883902099347	158.561705019122	1443.17071547052	1337.98485147256	259.467106691778	1978.73264854738	940.916389848395	195.244845051859	1721.49860463052	1416.57317319201	160.278531003891	2034.93342041987	1018.75506603492	184.641809580978	1929.15915046217	1182.53917412336	149.078884203872	1859.24494785901	918.988703065575	149.767642903526	1851.13741466206	1218.99778569773	203.631640993041	1961.18803847241	847.796424803905	163.584157018181	1411.07856532664	1797.96337953283	219.161114154774	2756.4170450931	1090.52775688291	219.834603581504	1965.04650269487	1421.5223566933	146.513676869888	2031.76683130284	985.397705041091	208.161114154774	2206.32910429737	1449.88739548134	135	2809.27974163051	932.09794218951	150.143386877018	2195.04952327882	1094.94585258483	154.917596325812	2082.21337774387
838.874668849128	158.614616357377	1446.08670756508	1339.31046732522	259.603835161807	1981.6030668352	941.683480473346	195.368379262075	1723.44831876369	1418.78348881537	160.362928805848	2039.57919938945	1019.32589339256	184.725973755346	1930.29433640262	1184.07931584421	149.1239101739	1862.72384237959	919.205448667407	149.768970126423	1851.33560747974	1219.99105420422	203.820474965554	1962.81417892662	847.629019871532	163.641459809738	1411.90725123588	1798.59870383461	219.307222335958	2760.00194697488	1090.65387256182	219.967381312889	1966.62531637147	1422.26786088235	146.604603562277	2035.62787004021	985.533118148369	208.267297050918	2206.14311934333	1450.85328359635	135	2811.34785027918	932.291609017291	150.225790551206	2195.35276317838	1095.0877907225	154.938843073884	2082.41404735762
840.017896333034	158.694187193253	1449.65868781108	1340.89931414681	259.856306561748	1985.31444409356	942.689418223427	195.523000092065	1726.28643031555	1421.28170369797	160.453585308807	2045.21694469326	1020.16660864563	184.840218867558	1932.09648703935	1185.81635184839	149.183312162058	1866.78330278305	919.857863130796	149.79099788519	1852.67418212768	1221.2488376149	204.047483974859	1965.12511322056	847.56267710093	163.714633737349	1413.16579220013	1799.34750916795	219.482276640875	2764.11892894429	1090.92430876525	220.14416992554	1968.67867905681	1423.06929091	146.69823368249	2039.85696234939	985.83146938807	208.409102713265	2206.43269447765	1452.08957204435	135	2814.12642824155	932.675009433889	150.326872762363	2196.24585777657	1095.38625914688	154.95927654881	2083.04706246909
841.24169055244	158.799665526944	1453.65667858644	1342.6770275852	260.214308405894	1989.65719831256	943.85703525088	195.702616735855	1729.79526487901	1423.88581887976	160.546414691193	2051.4340475977	1021.20799898708	184.982024529905	1934.43642501594	1187.60714319104	149.257284255818	1871.10226089433	920.848799901611	149.832914169514	1854.93928337709	1222.67365702592	204.298536763756	1967.94657991928	847.608130080597	163.793263949446	1414.69865642935	1800.18654008406	219.678837513898	2768.3428948156	1091.33187132568	220.355660269804	1970.96878445103	1423.86652803115	146.785959251402	2043.95750122824	986.249430682106	208.584157018181	2207.00794477591	1453.47377048793	135	2817.17616871534	933.188590839997	150.440770141163	2197.46620036374	1095.80347874858	154.977548000941	2083.94095430884
842.457929041086	158.92734726305	1457.78457539914	1344.54023926048	260.65421496401	1994.34074009688	945.096165096505	195.898917788843	1733.67773480525	1426.36670238728	160.637071194152	2057.69193244673	1022.35534788736	185.149016618753	1937.13969727035	1189.28877905608	149.344250268879	1875.3401919329	922.045637901404	149.89196842426	1857.85078090205	1224.1426803136	204.559229858837	1971.06322495402	847.759598129752	163.86724085038	1416.30397201238	1801.08577664367	219.887167986235	2772.22462624145	1091.85459304477	220.58898655594	1973.22325956489	1424.60229089613	146.861263375233	2047.44884772847	986.734013998154	208.78634763294	2207.63580885744	1454.86513340417	135	2819.99861697239	933.75349149053	150.559229858837	2198.67702284419	1096.28648166002	154.994227672539	2084.86970062837
843.577226728446	159.069583699371	1461.72558583229	1346.37422480646	261.145243156662	1999.03527328712	946.319456388672	196.102409434054	1737.60754320564	1428.48957378503	160.721468996109	2063.40172070736	1023.49751614812	185.338622564971	1940.00282269911	1190.69345847898	149.440770141163	1879.16801071129	923.302918281712	149.96262229584	1861.10803989143	1225.51855940723	204.816687837942	1974.23837584285	847.992642899263	163.930847074603	1417.76955953444	1802.00435317417	220.096431958906	2775.3773807151	1092.45431001726	220.829764863447	1975.18419522084	1425.224117478	146.919097271995	2049.96155494063	987.239409840571	209.005977475148	2208.09530055314	1456.14221089519	135	2822.14828173551	934.294424827022	150.673127237637	2199.55565731018	1096.78733185023	155.011749802608	2085.61343850971
844.526108956251	159.217109786177	1465.20280409731	1348.07324748248	261.655325490828	2003.43964066018	947.456912383678	196.303360739293	1741.29088223785	1430.05911500832	160.796254363015	2068.03057817092	1024.52617732923	185.54730077072	1942.81832502878	1191.67472309083	149.540525129423	1882.29968333248	924.483464927216	150.03737770416	1864.42591681354	1226.67469178694	205.059575711445	1977.2467744862	848.269586514744	163.982272722244	1418.90902873514	1802.89780628927	220.296056041249	2777.53341573134	1093.08514318547	221.064225963696	1976.64856489952	1425.68813638869	146.958493500288	2051.28620866125	987.728438423437	209.232706867713	2208.22477363264	1457.21671360685	135.001327222897	2823.32638815583	934.753871003551	150.774209448794	2199.8670156795	1097.26967123483	155.035529024564	2086.01759663934
845.266905262913	159.359867413159	1468.03664656376	1349.57036525644	262.156104620719	2007.34664470595	948.468334377675	196.494727185691	1744.51682094475	1430.96600355687	160.859145596866	2071.22570594997	1025.35300227928	185.768620355184	1945.40309898154	1192.13898440932	149.636983280774	1884.52224333355	925.47720949141	150.10803157574	1867.56263598983	1227.52050772062	205.27965598639	1979.90150781244	848.546400373455	164.022996173434	1419.59229848048	1803.71773397603	220.476999907935	2778.57514884942	1093.69630439397	221.282310432184	1977.49084073456	1425.95368077189	146.982272722244	2051.3828226199	988.179989122535	209.45734948153	2207.939887549	1458.04986013905	135.004650252251	2823.41565541774	935.104302999225	150.856613122982	2199.50246784594	1097.72146792974	155.070480148294	2086.01875021537
845.79820709741	159.488749710543	1470.16715797856	1350.83961617318	262.626172319525	2010.67019605765	949.340180632381	196.673127237637	1747.17712792637	1431.20015587849	160.90908637678	2072.86554541587	1025.91958088854	185.994022524852	1947.61900787232	1192.05726130733	149.722534361145	1885.73002551884	926.208980571258	150.168413053383	1870.33763772387	1228.01335445331	205.472349655684	1982.08417290199	848.780262182252	164.056506673866	1419.77063626438	1804.42620234923	220.632947960822	2778.5651311153	1094.23999996689	221.476999907935	1977.68826973257	1425.99662624806	146.994022524852	2050.39043183315	988.584075502025	209.673127237637	2207.23355928608	1458.64577950417	135.011749802608	2822.47038880706	935.346298311891	150.917770049098	2198.47862797576	1098.14791275519	155.119607655062	2085.64261850916
846.152669522931	159.598893286016	1471.65026466051	1351.89674874467	263.052538212287	2013.44819987237	950.08123233679	196.83871212194	1749.26680492158	1430.84569424745	160.946199523305	2073.08179703927	1026.20883852204	186.21365236706	1949.38761809231	1191.47668584041	149.791153678027	1885.93195812301	926.649246474113	150.214979589957	1872.64128380132	1228.16986923382	205.636270990176	1983.75310973461	848.938007497164	164.087053926439	1419.47191471359	1805.00342084563	220.762459646186	2777.70312299094	1094.67833118726	221.648020792784	1977.30173596401	1425.81535792851	146.998672777103	2048.57106995994	988.936680747841	209.8760898261	2206.18171428864	1459.03756548593	135.023779221956	2820.72336580553	935.497848211007	150.958493500288	2196.94263192117	1098.56201810967	155.185067100016	2085.00826491828
846.384378943176	159.687155522355	1472.63267706636	1352.78736751649	263.430843155972	2015.81323583164	950.713656003197	196.994022524852	1750.86195048738	1430.06410549974	160.971570525793	2072.21730544905	1026.24339833205	186.415842981819	1950.69633679386	1190.50827775269	149.839668893748	1885.25525924824	926.811545876072	150.248757151332	1874.44275529535	1228.05676715855	205.774209448794	1984.949177845	849.000219418921	164.117482266015	1418.7956300005	1805.44742034988	220.86836292559	2776.29183051255	1094.98814499912	221.79798867075	1976.46794207789	1425.43142988226	147	2046.26777762699	989.23693501016	210.064676396433	2204.91488953229	1459.27503465299	135.04072345119	2818.51604845207	935.589077433325	150.982272722244	2195.12429449495	1098.97713669511	155.26438861335	2084.28629861466
846.55335642605	159.754203688928	1473.30377622012	1353.56563673751	263.762104312725	2017.93845403708	951.261467265307	197.143560600305	1752.08333609318	1429.05575851	160.988250197392	2070.7531980394	1026.08357420375	186.590897286735	1951.60099979305	1189.31800062424	149.86836292559	1883.94043039654	926.752132246881	150.273863596185	1875.79318052746	1227.78176693884	205.892142147546	1985.78658854214	848.964992194921	164.150753626262	1417.88586526693	1805.77955914984	220.957949325913	2774.67106291334	1095.16713503988	221.932865598736	1975.3653962706	1424.89559746671	147	2043.83937434208	989.487271008462	210.238665336314	2203.6036866032	1459.40931290432	135.061156926116	2816.25259199208	935.650393387546	150.994022524852	2193.30388636846	1099.39743437887	155.353716214724	2083.67029360858
846.712612893915	159.803872670298	1473.84504018426	1354.27979743179	264.053598236297	2019.98057077554	951.745510120768	197.290016514902	1753.05733421971	1428.02498080081	161	2069.19875542972	1025.81420754022	186.732702949082	1952.2144209161	1188.09465735687	149.88074007835	1882.31846062967	926.55823335184	150.297209540859	1876.81857270261	1227.46972274542	205.998672777103	1986.43772776565	848.849987127018	164.188939865967	1416.90299219267	1806.04658901269	221.04072345119	2773.16552132498	1095.23429549006	222.059829703219	1974.1820112012	1424.29579514466	147	2041.62977554929	989.688561010123	210.399263641452	2202.41768322858	1459.48313588586	135.083730897085	2814.3265121496	935.705610263348	150.998672777103	2191.7527147574	1099.81272996302	155.446397845072	2083.33166826312
846.898359652309	159.840033782615	1474.38604827162	1354.95896854934	264.31253056516	2022.02640377661	952.179784049807	197.434792666016	1753.87856006263	1427.15055751686	161.010422579711	2067.98774893316	1025.5310237984	186.840213068123	1952.67697445855	1187.02363301589	149.882517733985	1880.75684145411	926.335904520133	150.326872762363	1877.6868001868	1227.24394538301	206.101880377306	1987.09397211669	848.688044680743	164.233505033862	1416.00391439095	1806.31012822594	221.126986822159	2772.0531828	1095.22636606315	222.184284051494	1973.09318910062	1423.74206624839	147	2039.9331219676	989.849041363994	210.546152833331	2201.50673068512	1459.54216708113	135.107059686304	2813.08511986623	935.77725981014	151	2190.70132970246	1100.21203610996	155.53545063688	2083.40202205353
847.126239399982	159.868375343444	1474.98686686509	1355.60755664114	264.545947685644	2024.07420731581	952.568904172683	197.577031605645	1754.59585793732	1426.56058074727	161.023779221956	2067.41794344091	1025.32337814772	186.917770049098	1953.12717259177	1186.25913860661	149.880125146052	1879.60057193292	926.190097156125	150.369351151511	1878.57333582326	1227.20490146697	206.208063273451	1987.93016572997	848.525209479776	164.286149311173	1415.32096653764	1806.64348771278	221.225790551206	2771.53705321236	1095.19195256231	222.310472707504	1972.23776627406	1423.35451139906	147	2038.97691526175	989.977984234305	210.680226787995	2200.97235619074	1459.62856178951	135.131624656556	2812.77671628608	935.880352823847	151	2190.30021156966	1100.58232875064	155.615026279931	2083.95068431334
847.391779441486	159.892940313696	1475.62038934554	1356.20479860368	264.755953114291	2026.01573987305	952.908762796741	197.71252346593	1755.19539564599	1426.32145237155	161.04072345119	2067.58789681231	1025.26054404883	186.97356633225	1953.66622908489	1185.90137965065	149.88021305943	1879.11604645286	926.210215239413	150.428753139669	1879.61809338619	1227.41792049953	206.320895287215	1989.06773497939	848.412713951668	164.348119510435	1414.94970897074	1807.11448824363	221.341945594325	2771.73815139819	1095.17895789274	222.439442918267	1971.70609732969	1423.24316263149	147	2038.90505415486	990.085896962691	210.802638923	2200.85008828185	1459.77881235337	135.159966217385	2813.524127108	936.021941563581	151	2190.59687355167	1100.91538696778	155.681558818065	2084.9783397724
847.670493471692	159.916269102915	1476.20950281314	1356.70596590757	264.942093445429	2027.68547144173	953.183003226074	197.836693597807	1755.62925048112	1426.42727360707	161.062484149013	2068.43448414838	1025.37800616651	187.019128969705	1954.33409194356	1185.98044137575	149.887429844096	1879.43271712436	926.451534638321	150.505272814309	1880.89323433376	1227.90040559522	206.439442918267	1990.54362102539	848.399729660396	164.419523393091	1414.95714727072	1807.77545021081	221.476299165728	2772.71246993473	1095.22840441847	222.570979661445	1971.54987426647	1423.48530343893	147	2039.78938365077	990.181383224606	210.915063851928	2201.12686186617	1460.02856904093	135.196127329702	2815.34395493657	936.204583676265	151	2191.55769489163	1101.21307337018	155.734284163753	2086.4400406329
847.925998056724	159.938843073884	1476.63997363719	1357.05026924301	265.099928711546	2028.88205950629	953.366574219485	197.943667049421	1755.82294916908	1426.81184100186	161.088381149336	2069.75109143586	1025.67599097183	187.063175450249	1955.0993222966	1186.46171670599	149.903568041094	1880.52560072098	926.930771270878	150.594758883401	1882.38374663404	1228.62749091721	206.559229858837	1992.3026699842	848.526711695329	164.49887109887	1415.37044951433	1808.6503110564	221.625059754879	2774.43484335328	1095.3656424363	222.701556711844	1971.77058041128	1424.10897370686	147	2041.60227943422	990.268341360949	211.020433474926	2201.74696887357	1460.39878297204	135.244469088175	2818.15054468682	936.422692292279	151	2193.07925296617	1101.4806826341	155.775007614943	2088.2544861204
848.120115839589	159.95927654881	1476.80612539145	1357.18094932185	265.225575892955	2029.43149033848	953.434055726425	198.030602062863	1755.71170510104	1427.36817155975	161.117482266015	2071.26813412314	1026.12419683774	187.113630179914	1955.88576291879	1187.25911406842	149.92934612842	1882.24371599753	927.625595899478	150.689527292496	1884.01176026235	1229.53785923495	206.673127237637	1994.22205980204	848.816054064449	164.583009080793	1416.18543878582	1809.72586760246	221.780985090091	2776.81331871497	1095.59628653545	222.828009925489	1972.33771323157	1425.08543934247	147	2044.22821608748	990.344077268817	211.123127125378	2202.6247258651	1460.88541031217	135.308194225395	2821.75784482224	936.660784143017	151	2195.0018920517	1101.72023603146	155.807218417328	2090.30361938965
848.220420564445	159.976220778044	1476.63837894456	1357.05648952702	265.315712029875	2029.22458945537	953.369148055894	198.096170101045	1755.26216217172	1427.97627442404	161.149426403365	2072.71564172637	1026.67466539702	187.173317297408	1956.6084344498	1188.25858946781	149.96262229584	1884.36413286321	928.489776950268	150.780186923941	1885.67276574156	1230.55360054766	206.774209448794	1996.15230156011	849.270074248982	164.667499533729	1417.37189660675	1810.96230999372	221.934170103957	2779.71526919519	1095.91270862577	222.946199523305	1973.20469531283	1426.3475690346	147	2047.49546264782	990.402579815173	211.225414587522	2203.67155557335	1461.46191205762	135.388029688479	2825.92169092905	936.897319418717	151	2197.14876680351	1101.92626849853	155.834839355989	2092.45420490014
848.209789200776	159.988250197392	1476.11655287323	1356.66766070168	265.367923425811	2028.2424528441	953.171961063879	198.141455891107	1754.48288971452	1428.52959547539	161.182962390819	2073.87488303661	1027.27218798766	187.241936614291	1957.18665852405	1189.33991905909	150	1886.62980188076	929.458291422551	150.857940345879	1887.25176106066	1231.59060621471	206.856613122982	1997.93717086483	849.868666745788	164.747365996432	1418.87161800938	1812.29522783094	222.076955255788	2782.97482292456	1096.29452127414	223.052646977085	1974.31276042129	1427.79988241598	147	2051.1961738422	990.436154550869	211.329060202609	2204.79918084933	1462.08266823933	135.480166369456	2830.35878885234	937.108500777811	151	2199.33977352258	1102.08490769699	155.860996176346	2094.56087770438
