Light	Light	Light	Light	Light	Light	Light	Light	Light	Light	Light	Light	Light	Light	Light	Light	Light	Light	Light	Light	Light	Light	Light	Light	Light	Light	Light	Light	Light	Light	Light	Light	Light	Light	Light	Light	Light	Light	Light	Light	Light	Light	Light	Light	Light	Light	Light	Light
Optode1-730nm	Optode1-Ambient	Optode1-850nm	Optode2-730nm	Optode2-Ambient	Optode2-850nm	Optode3-730nm	Optode3-Ambient	Optode3-850nm	Optode4-730nm	Optode4-Ambient	Optode4-850nm	Optode5-730nm	Optode5-Ambient	Optode5-850nm	Optode6-730nm	Optode6-Ambient	Optode6-850nm	Optode7-730nm	Optode7-Ambient	Optode7-850nm	Optode8-730nm	Optode8-Ambient	Optode8-850nm	Optode9-730nm	Optode9-Ambient	Optode9-850nm	Optode10-730nm	Optode10-Ambient	Optode10-850nm	Optode11-730nm	Optode11-Ambient	Optode11-850nm	Optode12-730nm	Optode12-Ambient	Optode12-850nm	Optode13-730nm	Optode13-Ambient	Optode13-850nm	Optode14-730nm	Optode14-Ambient	Optode14-850nm	Optode15-730nm	Optode15-Ambient	Optode15-850nm	Optode16-730nm	Optode16-Ambient	Optode16-850nm
293.035796223451	141.242887873503	595.729951079346	1445.14015579049	231.293795943195	2069.1022763988	671.934048921305	141	1291.32616242354	1021.44457084703	162.774209448794	1476.21104810081	1100.84743437354	130	2462.67681605853	1096.17382353757	151.559229858837	1678.88765589696	650.769222149964	128.001327222897	1152.36802889302	1186.3213373989	168.995349747749	1656.23578611723	896.365314356846	141.595897310225	1573.36047413484	1521.7624285343	183.917770049098	2189.86057285158	1334.54638296317	139.103207600203	2383.97063344979	819.793997528312	151.034054674806	1169.70700226078	632.620770515014	128.307504652472	1386.05284561948	970.297412926118	139.660312069993	1943.29625838548	351.142426669917	127	914.960839559998	679.586378275795	182.175316162778	1134.85085130152
293.077302989201	141.257457979105	596.270237774006	1446.63512581028	232.060002177937	2071.73055471736	671.866522931918	141	1291.7897492012	1021.54636956589	162.856613122982	1476.70211633516	1101.40473376349	130	2465.73926335094	1097.33099225794	151.655749731121	1681.85558850509	652.465152750977	128.004650252251	1156.46690820989	1186.93236510126	169.032296677935	1657.6182905804	897.196137089964	141.559229858837	1575.65058795017	1522.64422191539	183.958493500288	2192.13992092553	1336.5578610382	139.110833148395	2388.24477127725	821.008120071542	151.075304123831	1171.76212958406	632.594101862937	128.346528750989	1386.26584893145	973.154861706929	139.755530911825	1949.20291766627	351.33080750992	127	915.240110729159	680.825018845974	182.466317370247	1136.80127455079
293.10803157574	141.262020317978	596.716495182867	1447.94200558933	232.740815336278	2073.94342682961	671.744633330609	141	1292.07914023482	1021.4133207467	162.917770049098	1476.79914345675	1101.80483267273	130	2468.77606845002	1098.18642896958	151.742715744182	1684.58720395051	654.162875185806	128.011749802608	1160.91875137327	1187.39125235977	169.068256476474	1659.15499438927	898.097218437545	141.516672845678	1577.92250306502	1523.73579911738	183.982272722244	2194.44994839108	1338.29307021463	139.124581816373	2391.75378646264	822.03099685316	151.114159236662	1173.33667196531	632.419299046486	128.383105160514	1386.18490281121	975.53242512336	139.83536637491	1953.78283745451	351.41117080115	127	915.111720588714	681.91173527279	182.748312448471	1138.42861914903
293.125833322549	141.255703041147	597.07639460307	1449.01656890009	233.295920165703	2075.75967442614	671.579394112213	141	1292.2240949794	1021.05346157649	162.957166277391	1476.50498848149	1102.00788114068	130	2471.48027623391	1098.68725931699	151.815360615045	1686.74790788038	655.734540141516	128.023779221956	1165.35020163851	1187.68222738936	169.104855673248	1660.65784112282	898.963767521993	141.47804859109	1579.88608891242	1524.95071688977	183.994022524852	2196.56221243399	1339.60394652594	139.142326853007	2394.24234010143	822.808240159162	151.154076655615	1174.3418896363	632.115062613078	128.409005289322	1385.84214282341	977.434020099181	139.898663797069	1957.09793938336	351.403160623298	127	914.676683715566	682.834480422255	183.009906730076	1139.76540349614
293.131177934948	141.24008603481	597.355141002997	1449.83843777624	233.703600280587	2077.19527649358	671.378362134505	141	1292.23328928396	1020.48455734879	162.977622469994	1475.82424608845	1101.98414373297	130	2473.55677161958	1098.81471001792	151.871439573849	1688.06303988254	657.057358874018	128.04072345119	1169.38476530833	1187.7740420168	169.141805662347	1661.90174387765	899.651541905042	141.449999887741	1581.23891066316	1526.16705143893	183.997345554206	2198.22097057462	1340.37008195397	139.16051039176	2395.51587979722	823.325418175567	151.199362445678	1174.75064108267	631.700539998524	128.417258118094	1385.23965920313	978.964172055073	139.946199523305	1959.39296689484	351.342028325373	127	914.074723773725	683.602487584085	183.243494874073	1140.85712332668
293.124599575252	141.21726344672	597.556374021327	1450.40356403434	233.96135316563	2078.25328322656	671.141390408175	141	1292.09342444323	1019.72878740142	162.980945499347	1474.76039444535	1101.71871041802	130	2474.75705235153	1098.58019786236	151.908038770623	1688.35361938026	658.02825464127	128.061156926116	1172.69333090593	1187.61939968752	169.175054304917	1662.65103324053	900.005630502224	141.435687386625	1581.71897138894	1527.24820184669	183.994022524852	2199.17252444414	1340.52495954508	139.176381527814	2395.47899339131	823.609433755374	151.252634003568	1174.60080777942	631.187882238483	128.406346036355	1384.343123318	980.29356550483	139.981993105505	1960.99518993233	351.268591888586	127	913.446187482326	684.233507856023	183.442680871959	1141.7247416496
293.105103075428	141.191454359776	597.676785750217	1450.70827520197	234.082188034307	2078.89664729025	670.858127072301	141	1291.76713813244	1018.80127010275	162.970243302896	1473.30325345735	1101.21138866565	130	2474.91110038665	1098.01962411515	151.923542376559	1687.55362745289	658.576506246421	128.082403674188	1175.03310714167	1187.16295744199	169.199536168965	1662.69227573904	899.88543254447	141.434718196963	1581.14973108001	1528.0509219499	183.982272722244	2199.18875662983	1340.06377797811	139.188136137596	2394.14968697877	823.714337671991	151.315122959755	1173.9787646993	630.584872960046	128.379263443808	1383.09763086951	981.607047744644	140.010702196451	1962.20986896313	351.216921004687	127	912.895908187425	684.74054271933	183.605728544776	1142.34903221087
293.071846704714	141.1669121072	597.705856397059	1450.73570725663	234.090865324567	2079.04641163563	670.510061417104	141	1291.20126030823	1017.71018896005	162.946199523305	1471.43374282934	1100.47022724579	130	2473.94999113318	1097.17618522265	151.916442826201	1685.70833859388	658.66239360408	128.101082211157	1176.27020420487	1186.34484997548	169.20900211481	1661.87266095637	899.198715801825	141.444098732739	1579.47889525692	1528.45115483212	183.958493500288	2198.10523280439	1339.04936059762	139.195235687953	2391.67442126632	823.708013598146	151.385497214595	1173.00437681295	629.893327143418	128.340639189219	1381.45602716545	983.047523916385	140.036073198939	1963.2433613128	351.203823299333	127	912.475079626266	685.119858545078	183.731826158922	1142.66728721044
293.023525230182	141.148233570231	597.632767898493	1450.45271375158	234.013285221935	2078.61365158088	670.076759377501	141	1290.35195922482	1016.4598674453	162.910413599677	1469.1413447233	1099.51853543481	130	2471.90016860998	1096.10110875496	151.885586771564	1682.94275042482	658.279902772441	128.1138973788	1176.37373986727	1185.13062609683	169.198579535098	1660.11910524253	897.912356684735	141.459363198489	1576.77238968383	1528.35087557348	183.917770049098	2195.83581897303	1337.59224291734	139.198833526873	2388.29374751793	823.650385020641	151.46120361609	1171.80345855977	629.113085813168	128.297116065259	1379.40899521877	984.677339585974	140.059829703219	1964.16102173018	351.226121315899	127	912.176414520027	685.350190261786	183.822084201718	1142.59577850286
292.958493500288	141.140041129988	597.451432809013	1449.82083374113	233.87288046138	2077.52647460414	669.542097258264	141	1289.20244690906	1015.06380228608	162.863795849117	1466.4444494533	1098.39345884854	130	2468.88502486832	1094.85151134732	151.830716122659	1679.44167001864	657.451140956793	128.118459717673	1175.40760703483	1183.52382363365	169.165334367297	1657.46008464885	896.055726793057	141.475498961751	1573.21526337442	1527.6888273455	183.857940345879	2192.40727829419	1335.82756884652	139.20123384295	2384.32301119178	823.580285170486	151.53879638391	1170.49256178266	628.243831245828	128.2543937487	1376.99095204333	986.45956513208	140.082403674188	1964.88919697187	351.258676299262	127	911.94281399259	685.396893197911	183.878282073519	1142.05691529499
292.877844764058	141.144177432488	597.163515560286	1448.80849174295	233.682911995803	2075.75320040568	668.903460010543	141	1287.77036071732	1013.55089729543	162.808004165623	1463.40144284309	1097.14548515532	130	2465.10394373298	1093.49297135023	151.754203688928	1675.42038347289	656.220615132103	128.1138973788	1173.50655760958	1181.57770023756	169.110551631771	1654.02352514518	893.716467828925	141.488972013685	1569.08417996269	1526.44681123857	183.780186923941	2187.95730699706	1333.8993185014	139.203483779124	2380.11375071939	823.509680529104	151.614502785405	1169.16333441028	627.288852408683	128.216039613968	1374.28454158715	988.274184095099	140.101082211157	1965.26125333945	351.264439871206	127	911.685944111821	685.224720644597	183.900042771343	1141.00792604308
292.782111972475	141.161717680574	596.784285094982	1447.4081422602	233.449790791712	2073.33892819963	668.171521424486	141	1286.12154025714	1011.97031609865	162.745248218066	1460.125597067	1095.83830822942	130	2460.82633546961	1092.10075421486	151.660312069993	1671.11375312695	654.652442842748	128.101082211157	1170.86609428851	1179.39521496984	169.03992528504	1650.0303456107	891.029606408228	141.49526309807	1564.70711868063	1524.65259482514	183.689527292496	2182.72328277127	1331.94141312901	139.206985490561	2376.00217832584	823.425849686064	151.683549817348	1167.87330738838	626.256478252407	128.183050304197	1371.40389025925	989.944627910521	140.1138973788	1965.06754356755	351.20133127933	127	911.305286836514	684.809826823907	183.888013351995	1139.45923011779
292.674878700826	141.190149854555	596.338182225422	1445.6499487203	233.174429862054	2070.39040637145	667.374686253346	141	1284.35339630278	1010.39096689857	162.677794645342	1456.76503043373	1094.54195723837	130	2456.35011529726	1090.75341695403	151.554667519964	1666.74783830195	652.824147429224	128.082403674188	1167.71268872281	1177.11117515197	168.96262229584	1645.75603904783	888.158050697219	141.494744341145	1560.4321711825	1522.38309578387	183.596086106298	2177.02782914705	1330.06499907629	139.211915359552	2372.27941750775	823.299288283173	151.742715744182	1166.6465011543	625.159860152361	128.155315965134	1368.46555337399	991.283215505876	140.118459717673	1964.11049577504	351.034701092735	127	910.705320412989	684.153119875444	183.843536097477	1137.47786649871
292.559229858837	141.22499034723	595.859291579863	1443.60129441532	232.858461802578	2067.07466026148	666.551715716694	141	1282.58439184388	1008.88917684411	162.607571617309	1453.49364417757	1093.32032647221	130	2451.97970581014	1089.52218431249	151.445332480036	1662.52945478829	650.820676710333	128.061156926116	1164.29175816989	1174.86939955754	168.889420843379	1641.49556288643	885.274139528206	141.487528381099	1556.58487609831	1519.75895243286	183.511250289457	2171.23930661499	1328.34836711772	139.2184322019	2369.15176341931	823.093146259459	151.787560528817	1165.47633525106	624.019099396397	128.130297433659	1365.57180931978	992.127828293486	140.1138973788	1962.24464506253	350.741889860811	127	909.8074629058	683.281261490624	183.769559196543	1135.17495165755
292.440345900871	141.258785202002	595.379759956631	1441.36201587858	232.505973556517	2063.57306986412	665.74951990259	141	1280.92508072441	1007.54512639557	162.537316205893	1450.47424473012	1092.22983362639	130	2447.9833196238	1088.46664958397	151.339687930007	1658.62757191392	648.735196039817	128.04072345119	1160.83957396424	1172.80728731301	168.830394113483	1637.52253041549	882.542955301845	141.476307427723	1553.43678088565	1516.93946664726	183.446480417425	2165.73147171285	1326.83274677101	139.22499034723	2366.71561097409	822.774146533106	151.814839424384	1164.32758331628	622.859340226584	128.107059686304	1362.79207176439	992.370765438516	140.101082211157	1959.39059242812	350.317199576575	127	908.555864842003	682.245248055405	183.670472791843	1132.67744432077
292.323620490933	141.284568096502	594.9266149585	1439.05064384769	232.125721650462	2060.06133426687	665.018901032481	141	1279.46895520856	1006.43485929683	162.469988492152	1447.84463748294	1091.30829261851	130	2444.55911985297	1087.62460442982	151.244469088175	1655.15845147016	646.661190411969	128.023779221956	1157.56312453998	1171.03704251572	168.792749348379	1634.05366008305	880.106206671701	141.464532207665	1551.18342644643	1514.10715385489	183.410857651223	2160.84002491768	1325.52312308698	139.23315730045	2364.95350820348	822.318651876037	151.822739782142	1163.14631328949	621.710271205138	128.083730897085	1360.15738575288	991.968759814755	140.081076451291	1955.5376400891	349.770947489009	127	906.920137907837	681.10800290164	183.553252383689	1130.10228276402
292.216308712739	141.297383264146	594.511182723856	1436.78584962465	231.729259847703	2056.66089785494	664.406248560519	141	1278.26396005616	1005.61919824725	162.40882843755	1445.6840885813	1090.57895961241	130	2441.8097936431	1087.01480999857	151.16463362509	1652.17567059034	644.691641440396	128.011749802608	1154.61847868341	1169.64387770327	168.779392706135	1631.2271348416	878.074095676914	141.455964945035	1549.91448258391	1511.45241603921	183.409102713265	2156.80882594696	1324.39650477033	139.242343699128	2363.72910392342	821.718548970302	151.808955424836	1161.86169016328	620.603599900372	128.061156926116	1357.65951249958	990.939098778169	140.055179450969	1950.72840299578	349.123409138645	127	904.892610228362	679.930711772803	183.423042863408	1127.53058903709
292.126442647784	141.29351402259	594.125381710836	1434.67176466324	231.325283681605	2053.4219380765	663.949941947545	141	1277.31033031054	1005.1407556782	162.357734379222	1444.00218840174	1090.04873304233	130	2439.73577518554	1086.63291662182	151.102663425828	1649.66770745235	642.916030254811	128.004650252251	1152.10553183327	1168.68060979242	168.789670662293	1629.09444106448	876.517165574555	141.453038700697	1549.61964211741	1509.15159963082	183.440596417877	2153.77909558702	1323.41060909001	139.254751781934	2362.83149801407	820.979753548134	151.772882225897	1160.40648443089	619.571932472473	128.042050674087	1355.27331582641	989.349156728205	140.024323396331	1945.0555357653	348.40123358573	127	902.490472734653	678.761545356354	183.285366262651	1124.99811464057
292.060576117992	141.273080547663	593.744094718455	1432.78848723904	230.918830073109	2050.33331100192	663.676039551687	141	1276.56821251838	1005.01886878417	162.31925445508	1442.74409503134	1089.70968067484	130	2438.23976274576	1086.45277275158	151.058450728946	1647.55452727052	641.40902239852	128.001327222897	1150.06164909932	1168.1662511767	168.817841337552	1627.62059210261	875.467440671276	141.458164803134	1550.18828046082	1507.34660706314	183.498326924495	2151.77034037878	1322.51571496888	139.270530267009	2362.00471069625	820.120105182705	151.714807460636	1158.71992005057	618.64395522514	128.029756697104	1352.97208722331	987.297003550852	139.988250197392	1938.65748670071	347.63107656355	127	899.757420750432	677.628564344782	183.143560600305	1122.50124128045
292.023717170757	141.238758811913	593.333112608422	1431.18555199863	230.511424012744	2047.33808155604	663.594879994191	141	1275.96966805265	1005.24641003723	162.293876211683	1441.80231466458	1089.53813113722	130	2437.15412058239	1086.42719473663	151.029756697104	1645.70516864887	640.226329476242	128	1148.46855777345	1168.08406723365	168.856439399695	1626.69815232172	874.918055138787	141.472188350251	1551.42057139365	1506.13113496372	183.572306884342	2150.70188731616	1321.66801880969	139.289497757977	2360.99549182558	819.167269986105	151.636532848037	1156.76864115828	617.842895468352	128.028149857467	1350.73836837488	984.902209672273	139.947247129462	1931.72651432918	346.838637652887	127	896.76816879102	676.54196296821	183	1120.01537019695
292.018527481732	141.195235687953	592.860865163887	1429.88663446941	230.103736656951	2044.37386672187	663.703564966291	141	1275.44643554699	1005.7981441864	162.279764751188	1441.05462270936	1089.49954923827	130	2436.28536837481	1086.49677906922	151.013077025505	1643.96753283192	639.393341489892	128	1147.26178078255	1168.38507800669	168.898119622694	1626.17626005106	874.822151950623	141.494308759997	1553.05427221746	1505.53527243698	183.651304626557	2150.41008623683	1320.83176914688	139.310879792342	2359.59227395932	818.153805508386	151.542917717356	1154.55063422224	617.182566242904	128.041506499712	1348.5773348569	982.295167702698	139.901442652048	1924.51760356423	346.047483974859	127	893.630840502225	675.501000376835	182.856439399695	1117.52400117344
292.045091386927	141.148210852555	592.310047356586	1428.8903099737	229.69683199054	2041.40640336994	663.986788684442	141	1274.95120468782	1006.63437953721	162.273072285668	1440.39846491265	1089.55385786529	130.001327222897	2435.46058954264	1086.60463887086	151.004650252251	1642.20747280501	638.9053644873	128	1146.34604205203	1169.00087482865	168.936824549751	1625.89425817809	875.10279055993	141.522091294862	1554.80888413031	1505.52597153259	183.72624122027	2150.69583039719	1319.98839003282	139.332505203872	2357.67272285302	817.116487922303	151.440682227785	1152.10799594584	616.664469619869	128.070480148294	1346.51915534471	979.608113961392	139.851789147445	1917.32720698525	345.279046853526	127	890.475886760666	674.501336703749	182.714633737349	1115.03089277432
292.099695370796	141.103207600203	591.685026752445	1428.17190145702	229.297568349089	2038.45015612863	664.419336755309	141	1274.47327922972	1007.70743605894	162.268780066652	1439.77949270686	1089.65798679225	130.004650252251	2434.57885705821	1086.70399061792	151.001327222897	1640.34892478645	638.725119462937	128	1145.61931954932	1169.84760374143	168.970448450583	1625.72231476275	875.659005264005	141.552918094602	1556.41740576952	1506.01712453575	183.792364441611	2151.34525797262	1319.13670136827	139.351156285564	2355.21164668751	816.094838245251	151.33836070711	1149.51905849385	616.282271291032	128.114957402811	1344.60925905875	976.967924905541	139.800114059796	1910.46780328013	344.55381681318	127	887.440477918468	673.542054592718	182.576957136592	1112.57068130278
292.174792668252	141.065829896043	591.015159451929	1427.68759953175	228.91700040006	2035.57006906941	664.96914223785	141	1274.0434296288	1008.96704536591	162.262113793577	1439.20723626948	1089.77113076271	130.011749802608	2433.63649079581	1086.76714223838	151	1638.39712943934	638.78862585562	128	1144.99372904359	1170.83968670616	169.001327222897	1625.59064973247	876.385161368766	141.583885870952	1557.67899856236	1506.8819294708	183.851789147445	2152.16866764334	1318.29353387079	139.363998908484	2352.2963942617	815.126259380695	151.244469088175	1146.88971319909	616.020274510567	128.173317297408	1342.90993573417	974.485161548441	139.749491385479	1904.22513989783	343.887732415726	127	884.649005461749	672.629756858671	182.448074839208	1110.20427518935
292.260803726135	141.040179276815	590.341865346638	1427.37451575518	228.570484066925	2032.8516750774	665.600155550424	141	1273.71610855569	1010.36035178729	162.250084374229	1438.73671642602	1089.85787356954	130.023779221956	2432.72858330579	1086.78225141811	151	1636.43406958642	639.015722153106	128	1144.41530092023	1171.89620121067	169.035529024564	1625.50144603162	877.185629608822	141.614095700567	1558.48934319563	1507.97419018812	183.909192270233	2153.02232825677	1317.48779548071	139.369509806796	2349.11470386656	814.240883638284	151.16463362509	1144.337370885	615.859467612651	128.240609391394	1341.49405222887	972.240719570113	139.701813007484	1898.81897317768	343.290734604935	127	882.192988385445	671.773934291159	182.332850237511	1108.00873630023
292.345725022618	141.028149857467	589.713960702194	1427.15081223327	228.275661772973	2030.38065748323	666.271745062771	141	1273.55586567047	1011.82974322277	162.231379644816	1438.44777204353	1089.8899162557	130.04072345119	2432.01651971111	1086.74835411678	151	1634.59387560714	639.321174637016	128	1143.87018469698	1172.94451285008	169.080902728005	1625.51679056666	877.985310335423	141.644166006909	1558.85384483761	1509.15287602779	183.971824517568	2153.84139734718	1316.75018690946	139.367321937838	2345.93551555269	813.459182056895	151.102663425828	1141.98349759027	615.780756866028	128.312992763535	1340.4407340847	970.284609102352	139.66111227397	1894.38223976203	342.767300969549	127	880.123747282437	670.989318058664	182.238867576711	1106.06196012465
292.417164642494	141.029756697104	589.171417370588	1426.92499877507	228.047693070889	2028.20678447081	666.942411792268	141	1273.60951399818	1013.3129835678	162.208592330198	1438.40974571623	1089.85128273878	130.062484149013	2431.67234209164	1086.67325972752	151	1633.02196534021	639.6268976305	128	1143.37347943923	1173.92824295032	169.143386877018	1625.72640803235	878.727482488706	141.676729280307	1558.86182637439	1510.29613163066	184.04739049926	2154.62951370799	1316.09989793522	139.359583058818	2343.04897167012	812.78906790171	151.059777951843	1139.93479175505	615.768379762893	128.383913696059	1339.82356969762	968.635262493034	139.62971000713	1890.95391649883	342.314353310716	127	878.447983035935	670.291633846733	182.173143574122	1104.43138468902
292.465250105327	141.042050674087	588.738213010335	1426.6048276891	227.898416853298	2026.32845111688	667.570447712552	141	1273.89150388442	1014.74586391972	162.184284051495	1438.65847666008	1089.73801266051	130.087053926439	2431.82506582495	1086.5680013417	151	1631.84092286629	639.870114715095	128	1142.95186067864	1174.80691362179	169.225790551206	1626.21419513222	879.377733486992	141.713842426831	1558.66104468923	1511.31772691203	184.140156568216	2155.45066807734	1315.54223844989	139.349184875471	2340.73311993591	812.228475365203	151.034406949354	1138.27825376964	615.811709145664	128.447069487544	1339.71162357789	967.286430692001	139.609249007354	1888.50848433791	341.923776041357	127	877.143273900375	669.693622553959	182.140680679847	1103.16688815456
292.48340988537	141.061156926116	588.41481957912	1426.10912629904	227.831803642695	2024.68784236855	668.117127495231	141	1274.37615139052	1016.06338933577	162.163037303422	1439.17874936611	1089.56272891534	130.114159236662	2432.51334284203	1086.44975026824	151	1631.12142021222	640.01216803593	128	1142.62278381475	1175.56343071375	169.326872762363	1627.02215684003	879.913943699671	141.756590935836	1558.41053276617	1512.16532677969	184.251568638532	2156.39273677395	1315.06295281809	139.340901047081	2339.203642128	811.766010949687	151.024826828113	1137.07162654248	615.907734794728	128.496216791018	1340.16304439154	966.217585879654	139.600736358548	1886.97426786865	341.585843049308	127	876.164757568603	669.206608122611	182.14416992554	1102.29641199084
292.46978868549	141.082403674188	588.182340840102	1425.38542128283	227.844080464224	2023.18483158886	668.549777616746	141	1275.00350751087	1017.20963385048	162.146906347334	1439.90881937027	1089.35246549871	130.142326853007	2433.67988698243	1086.34257592409	151	1630.87537118677	640.038781241565	128	1142.38488619179	1176.20105102644	169.44209736406	1628.13816208533	880.331926060735	141.80343708915	1558.24859607521	1512.83200442762	184.379517435582	2157.53348389879	1314.64343966422	139.33836070711	2338.58505087542	811.390003626381	151.028429474207	1136.3365685319	616.061403969597	128.526154939553	1341.2151844523	965.400454177768	139.604605600104	1886.24940728318	341.28942058915	127	875.456202691124	668.838624087075	182.182360902846	1101.82287926224
292.427592784427	141.101082211157	588.005867654153	1424.42468661173	227.92244881846	2021.69867268601	668.851411648353	141	1275.68988092461	1018.1471836319	162.136611235721	1440.75059731384	1089.14023165437	130.172260194368	2435.17416895529	1086.26903370407	151.001327222897	1631.04958015997	639.956891379185	128.001327222897	1142.21289942048	1176.73923771559	169.565207333984	1629.48842888307	880.643307635015	141.851789147445	1558.27772486036	1513.34091265546	184.517549635838	2158.92009036145	1314.2659654169	139.342923045982	2338.90951176179	811.084122659486	151.042050674087	1136.05488763003	616.28991068753	128.533594495178	1342.8980451228	964.810417512362	139.620736556192	1886.23684981099	341.026783438989	127	874.965242460862	668.596516053363	182.250446563322	1101.73390977703
292.363190442512	141.113897378801	587.847529917082	1423.26244166522	228.048811197756	2020.12747020754	669.020759042707	141	1276.35506222149	1018.86302337889	162.131624656556	1441.59826798906	1088.96010119424	130.20481100202	2436.79368016123	1086.24992240851	151.004650252251	1631.53855617412	639.791775796224	128.004650252251	1142.06883736126	1177.20865459057	169.690854515393	1630.95538021731	880.878933112808	141.8954651769	1558.55259209853	1513.74134609873	184.655749731121	2160.5484849894	1313.91987122225	139.353716214724	2340.10160004452	810.830945898538	151.061156926116	1136.161726292	616.615889366336	128.517723359125	1345.2277792527	964.421391831161	139.648409174322	1886.8389033836	340.79099788519	127	874.642810498287	668.483020593087	182.341015152904	1102.00264660756
292.286693485548	141.118459717673	587.679047284752	1421.9799178712	228.203867608895	2018.42442372689	669.07905667859	141	1276.94668205437	1019.37913662934	162.129087445071	1442.36981731637	1088.83775840017	130.240609391394	2438.33790016056	1086.2975590309	151.011749802608	1632.20840479304	639.578429586465	128.011749802608	1141.91355881495	1177.64308451289	169.814388725609	1632.40878627334	881.080537849769	141.930847074603	1559.08786066537	1514.09359356486	184.785723190077	2162.37553690639	1313.6027440055	139.367863412439	2342.00168206545	810.60835506174	151.082403674188	1136.55285302794	617.065676995351	128.480345654965	1348.20293690705	964.210137103492	139.686216680996	1887.96196164925	340.577755302742	127	874.448224942951	668.497678458108	182.445332480036	1102.59204136305
292.208063273451	141.113897378801	587.49445091743	1420.68599592967	228.370495140557	2016.62697402126	669.068640909669	141	1277.46015001852	1019.74889910126	162.126974404306	1443.03661520213	1088.79028622911	130.280171836026	2439.65555330916	1086.4193852377	151.023779221956	1632.92356447209	639.35738405957	128.023779221956	1141.7250413186	1178.08207088908	169.932865598736	1633.73602963009	881.298815373091	141.951393949931	1559.86257000992	1514.46155967046	184.898641079393	2164.32891694596	1313.31967559072	139.38082980689	2344.37948209507	810.395208248125	151.101082211157	1137.09547836525	617.661059754135	128.425562919438	1351.79628909805	964.150076663565	139.730674983978	1889.51075017058	340.383472911828	127	874.348494822804	668.631743979205	182.554667519964	1103.45630797188
292.13740940187	141.101082211157	587.310865244	1419.49652469782	228.536777859777	2014.85466978218	669.044672961233	141	1277.9420171554	1020.05124636213	162.124861433113	1443.63009016088	1088.8231098085	130.321960652251	2440.6783042309	1086.61814341762	151.04072345119	1633.57623375257	639.172003473995	128.042050674087	1141.50716442361	1178.56383660185	170.044756871257	1634.87175365486	881.579752771918	141.955170470934	1560.82414215185	1514.89854167663	184.991314427797	2166.31765628252	1313.07815910968	139.389082635661	2346.95306404336	810.171351590118	151.113897378801	1137.64101719866	618.409233461492	128.360396331964	1355.94221587919	964.209237679492	139.776917545849	1891.38153610822	340.204558910131	127	874.317779305433	668.867426408897	182.660312069993	1104.53841080276
292.082229950902	141.082403674188	587.166841320451	1418.51875914241	228.696906459593	2013.28986981626	669.068700833939	141	1278.4795313483	1020.3811872584	162.124454348275	1444.23724726663	1088.9304788869	130.362145757326	2441.43959560527	1086.89075689846	151.061156926116	1634.11103543634	639.064153801506	128.065807178367	1141.30450736376	1179.123022844	170.147427804033	1635.81571002985	881.9621353721	141.941549271054	1561.90824855601	1515.44494454449	185.063354735757	2168.2601415507	1312.88875596117	139.39110428828	2349.43695434467	809.9233108661	151.118459717673	1138.0527503011	619.300734330865	128.293192151356	1360.52549894276	964.351996485449	139.816687837942	1893.45522684193	340.038160752682	127	874.332488473199	669.177278148307	182.755530911825	1105.76729545695
292.046156751962	141.061156926116	587.109683839125	1417.82258716517	228.850461924548	2012.13234783867	669.191410308619	141	1279.17234021676	1020.82232746662	162.126964104483	1444.97077932025	1089.09716576999	130.395134579862	2442.05250521831	1087.22649984315	151.082403674188	1634.52447946321	639.072489272203	128.094153476796	1141.20033603775	1179.78373867388	170.238665336314	1636.62669639401	882.472881326082	141.912409406134	1563.05039923312	1516.13192128671	185.118342483364	2170.10108869621	1312.76633019781	139.386450907543	2351.58450204319	809.649646583956	151.113897378801	1138.22960584713	620.307530686222	128.233766891724	1365.37538994361	964.543859940822	139.840560801536	1895.59427700361	339.882443264932	127	874.371009337643	669.528459989263	182.83536637491	1107.05690654393
292.030804303261	141.042050674087	587.178517593062	1417.44007720862	228.998672777103	2011.5368911611	669.443072688789	141.001327222897	1280.09581721717	1021.43657399416	162.136204150883	1445.92432200294	1089.30563835194	130.414777616783	2442.64789187621	1087.60816563257	151.101082211157	1634.84076073287	639.237034252396	128.124861433113	1141.29810714388	1180.55728915884	170.315185010954	1637.38633233335	883.127789654048	141.870895399474	1564.20376870019	1516.98121150331	185.160911914376	2171.82989032454	1312.72491395131	139.377384805627	2353.23027171038	809.357880190647	151.09975498826	1138.12327889464	621.387807121105	128.193063099297	1370.28006749037	964.756874707534	139.840213068123	1897.65861562186	339.736769693434	127	874.415024752925	669.886463561724	182.897336574172	1108.31239282336
292.034406949354	141.029756697104	587.39270970641	1417.35404404101	229.143560600305	2011.58011592257	669.825659299893	141.005977475148	1281.27970981759	1022.24457836729	162.154618130216	1447.14948023456	1089.53844454346	130.415930895197	2443.33405197649	1088.01094132601	151.113897378801	1635.08924542017	639.591608942797	128.15462082999	1141.70484808658	1181.44059394469	170.372835535923	1638.17425679896	883.931040539955	141.820033584971	1565.33950977819	1518.00527639146	185.193780996958	2173.4715444863	1312.77304241576	139.364801881808	2354.29258309591	809.062440849906	151.076426199041	1137.73627946442	622.489703403491	128.180243124479	1375.00719479477	964.973307267264	139.811239419542	1899.51763067739	339.603273570033	127	874.447848840101	670.220669345065	182.941549271054	1109.43663933539
292.053800476695	141.028149857467	587.7475121718	1417.5127242942	229.284039039754	2012.2379011692	670.313383044957	141.016400054859	1282.69380297418	1023.22680731332	162.182770687457	1448.63514470102	1089.78418551173	130.395923456643	2444.13676320221	1088.4102833622	151.118459717673	1635.27411077902	640.165940950596	128.179616643789	1142.4930902783	1182.41900986937	170.40741140139	1639.02917382418	884.877179951442	141.762192447299	1566.44499641906	1519.21086208156	185.218745811138	2175.07416231124	1312.90850606037	139.349584719399	2354.77031345794	808.778943631036	151.043429648361	1137.11497505576	623.561788873234	128.19918316017	1379.32834769002	965.187413057604	139.753753256191	1901.06487429536	339.485511756851	127	874.456231383488	670.507140527471	182.970243302896	1110.3427683755
292.084936148072	141.041506499712	588.211129848469	1417.83556981508	229.41706538826	2013.39150252269	670.857743904916	141.035529024564	1284.25756987777	1024.32721298883	162.219795920604	1450.31630832676	1090.03941703092	130.355484221852	2445.00371706109	1088.7883010802	151.113897378801	1635.37763847784	640.97612511909	128.197628275886	1143.68155373279	1183.47127133799	170.415842981819	1639.94968897744	885.943651429374	141.699555343165	1567.50183263973	1520.58117815028	185.235697281282	2176.67156268578	1313.10412466294	139.332505203872	2354.69279529449	808.514833138845	151.000544174375	1136.32179108353	624.555865722947	128.249569773162	1383.05206190339	965.400155283201	139.673127237637	1902.23605947227	339.386388856344	127	874.429020062347	670.730859876549	182.986922974495	1110.96482196384
292.123127125378	141.07180737119	588.73402726469	1418.23261244679	229.535525105933	2014.85308147681	671.400045441405	141.064502673146	1285.85750894671	1025.46746405907	162.263458171929	1452.09253518187	1090.31417622173	130.29991573803	2445.82478266836	1089.14844216211	151.101082211157	1635.37649124795	642.024032134465	128.206814674564	1145.2273217099	1184.5825237861	170.398465475302	1640.90401035096	887.096759947985	141.634795840529	1568.48190886752	1522.08257341675	185.243321150786	2178.27238205845	1313.31569621392	139.3151058043	2354.10166489416	808.272326154195	150.947526746202	1135.42156146921	625.429848356488	128.322222510112	1386.04540903743	965.616197976029	139.578358828542	1903.00931512878	339.306953237188	127	874.357287702456	670.88469322993	182.994022524852	1111.26602617652
292.162239137273	141.118280432165	589.255677782392	1418.61960856711	229.628966292131	2016.40373377012	671.882211214013	141.101880377306	1287.37331883766	1026.56162953604	162.30869505187	1453.85131835225	1090.62370073247	130.235959139143	2446.48824324716	1089.51391783149	151.082403674188	1635.27497379789	643.292332599953	128.209378078494	1147.03969734906	1185.74005221656	170.358540190262	1641.86130985638	888.287719988809	141.57239479772	1569.34079092822	1523.65759233098	185.239544560209	2179.84959103495	1313.48630378793	139.297995289155	2353.0355493494	808.04844630889	150.884762980449	1134.46919931337	626.158089799767	128.403913893702	1388.24806951095	965.842431349293	139.480166369456	1903.40517069087	339.247037299278	127	874.233392369514	670.97059074947	182.992695301956	1111.24409935546
292.196301052989	141.179089624869	589.713442052173	1418.9303885032	229.686002022744	2017.81452681853	672.257316541338	141.143560600305	1288.68897706107	1027.52965541183	162.351611455902	1455.47818304248	1090.98191952588	130.173317297408	2446.94541788566	1089.91926165358	151.061156926116	1635.13723113077	644.739883564695	128.209373340893	1149.01104450512	1186.92993052575	170.302743769168	1642.82326068899	889.464365900953	141.51833268436	1570.02906707863	1525.24068778709	185.22419218108	2181.35597572179	1313.56965255479	139.283500427601	2351.5512643508	807.843913308829	150.815715948506	1133.51483639196	626.728887304358	128.478327130832	1389.6754722817	966.085285919312	139.388029688479	1903.47559223656	339.203745636985	127	874.050841293349	670.999797759602	182.982272722244	1110.93049529314
292.218214705933	141.247988558491	590.049753018266	1419.12275621313	229.695498968208	2018.88230050919	672.494128726493	141.183485885345	1289.71052593752	1028.30638422579	162.38688175109	1456.87021361516	1091.39418009766	130.119607655062	2447.22814435325	1090.39618541468	151.04072345119	1635.0799514071	646.304593697332	128.211744336039	1151.03912361174	1188.12886810864	170.239556978063	1643.82871409594	890.57595773745	141.479220672465	1570.50861982727	1526.76365843184	185.197628275886	2182.74503357491	1313.54029271585	139.275207974537	2349.7485839744	807.665173407308	150.744934608828	1132.60991495632	627.146665921372	128.531067583516	1390.42038104864	966.349159300131	139.308194225395	1903.29897164736	339.172348107746	127	873.810373008508	670.987355476782	182.958493500288	1110.38911310455
292.22314450535	141.31818719016	590.222605680024	1419.18087588398	229.651800221077	2019.45497450907	672.579392576806	141.216306812854	1290.37490907449	1028.8446192525	162.410323871137	1457.94116466685	1091.84652698462	130.080902728005	2447.44792839366	1090.95391908009	151.023779221956	1635.2512494948	647.902539986918	128.221547383793	1153.04241126733	1189.29205334335	170.177334686911	1644.94370927721	891.578600861407	141.461029892803	1570.77070375658	1528.1640495918	185.162239137273	2183.9957991278	1313.40153939401	139.274747241977	2347.79932739303	807.525232197451	150.678837513898	1131.82055067464	627.432027885806	128.553069149838	1390.63703949845	966.636807253622	139.244469088175	1902.96888623941	339.149543637674	127	873.523575355209	670.952775579137	182.917770049098	1109.71097728837
292.207792126222	141.381895171926	590.208635399725	1419.1128254051	229.556695485068	2019.45103285491	672.517246220521	141.237007348724	1290.65026727338	1029.1210104551	162.418375455703	1458.62548969333	1092.30731161939	130.060635469417	2447.7638458144	1091.57013538427	151.011749802608	1635.78864128542	649.432205200082	128.241059824131	1154.96114256918	1190.3568373119	170.122582951003	1646.2372344941	892.441575489241	141.4663999426	1570.83539485918	1529.39228013048	185.121799902481	2185.10944854485	1313.18467116625	139.284415003439	2345.92706431664	807.44144072834	150.624510018283	1131.2197174171	627.613134489601	128.541490163227	1390.52700314303	966.944418960382	139.196127329702	1902.59287419089	339.131624656556	127	873.220053667888	670.913990620805	182.856613122982	1109.00770878293
292.17384905393	141.432243036677	590.014039967053	1418.9544367419	229.423147679863	2018.88842778511	672.327658318287	141.244106899082	1290.54976671396	1029.14022476835	162.408914247458	1458.8983482304	1092.72873686623	130.057123506049	2448.3286145669	1092.19129727852	151.003323029354	1636.77642871208	650.782319885187	128.26876976683	1156.74189203651	1191.24571361821	170.078884203872	1647.74993356824	893.142934878756	141.495539807521	1570.74986816685	1530.40534784105	185.080285895822	2186.10736496534	1312.9316929906	139.303951057982	2344.37994657739	807.424891612597	150.587938346359	1130.88106414033	627.723093576483	128.500779129891	1390.31728631976	967.263584884979	139.159966217385	1902.28937794355	339.117482266015	127	872.949046136256	670.883797946645	182.774209448794	1108.40081279719
292.127493161231	141.465488204479	589.670554653409	1418.76097635732	229.272886144528	2017.87832746269	672.045442495837	141.238758811913	1290.12921914352	1028.93589854266	162.381868979481	1458.78025029818	1093.054554629	130.068461624161	2449.2367238733	1092.74219778713	150.996676970646	1638.21276846193	651.841741728554	128.299508653192	1158.32381003388	1191.88023540027	170.046700926337	1649.47007031038	893.66363627703	141.543977741366	1570.57286659054	1531.16045092251	185.04072345119	2187.01098334211	1312.67345465656	139.333282739798	2343.37145111906	807.472197105768	150.571079992676	1130.85851943093	627.792997540719	128.441314315538	1390.23717964824	967.581722910002	139.131624656556	1902.18164787393	339.107510119041	127	872.775694208715	670.86917554742	182.673127237637	1108.00816058431
292.078370254121	141.480345654965	589.238560252919	1418.60368374653	229.134159030325	2016.62711657187	671.715238151678	141.224209336535	1289.49503310488	1028.57121237612	162.339433938232	1458.35791883865	1093.23909855827	130.088381149336	2450.50538312814	1093.15699243037	150.988250197392	1640.01574488622	652.517966638023	128.325724824974	1159.6345355972	1192.20737360262	170.025106444853	1651.33582475212	893.989052329316	141.60327633938	1570.36342982886	1531.61976029786	185.004650252251	2187.83025964583	1312.4235768857	139.367317200237	2343.03570283919	807.566183309705	150.571777827594	1131.17267820286	627.84731933617	128.374952662974	1390.4799167887	967.882256142162	139.107059686304	1902.37456065429	339.101880377306	127	872.763401170787	670.869173509593	182.559229858837	1107.92333984025
292.038061498448	141.477798074084	588.79528557324	1418.55699512891	229.034416459919	2015.3994005296	671.389127018356	141.204717526421	1288.79374511491	1028.13145207713	162.285799539934	1457.77933006253	1093.26077588385	130.112832013765	2452.07617023528	1093.40162542038	150.976220778044	1642.04907393379	652.753815018016	128.340626771366	1160.59879522995	1192.21615719156	170.011749802608	1653.25141782791	894.103463844905	141.663282558761	1570.16386011647	1531.74698541987	184.972353574315	2188.55055562671	1312.1714192297	139.400744524891	2343.39236373945	807.676569805165	150.583009080793	1131.80128568759	627.904521348765	128.315293775752	1391.17752568916	968.154531016728	139.083730897085	1902.94134108779	339.101880377306	127	872.962025887636	670.878215215146	182.440770141163	1108.19829069807
292.015893715787	141.460420567568	588.42496840756	1418.68265937308	228.995385120492	2014.47020938462	671.116910702417	141.184284051495	1288.19675069808	1027.70927391903	162.227527558715	1457.23773449253	1093.13285320694	130.137676600757	2453.84126214943	1093.49271751545	150.95927654881	1644.16519598262	652.542871686166	128.338089559881	1161.15927756913	1191.94867636843	170.004650252251	1655.1162448626	893.999774542768	141.711725299781	1569.99534965679	1531.52574098289	184.943493326134	2189.13738567013	1311.89749850836	139.426894949509	2344.34944567165	807.77532801685	150.594592805004	1132.68516135455	627.971852042418	128.271571339484	1392.38141460935	968.390482279153	139.061156926116	1903.90848165467	339.106182896144	127	873.389799610121	670.886369820086	182.326872762363	1108.83455911929
292.016412472712	141.431474443836	588.203788057731	1419.01308916842	229.027573205201	2014.08066990947	670.938079491219	141.165584884303	1287.87849747923	1027.3869068936	162.170235136553	1456.94523029185	1092.9012525732	130.159183168863	2455.71154652848	1093.49628445492	150.938843073884	1646.26697193268	651.930893529359	128.316087993559	1161.30680263066	1191.49459609913	170.001327222897	1656.87145542792	893.677491125321	141.740007647126	1569.86138730197	1530.96131231353	184.918923548709	2189.55363639171	1311.58411849199	139.440516149389	2345.74299649574	807.841512568804	150.597136619744	1133.74725907509	628.053785359068	128.2486005835	1394.05273503365	968.594825089558	139.04072345119	1905.24600692217	339.114159236662	127	874.026155924776	670.886619260093	182.225790551206	1109.77969412981
292.038177908137	141.395396437723	588.188220331358	1419.54265276027	229.130420654138	2014.3875706802	670.874915634203	141.149426403365	1287.98102063959	1027.2210329867	162.11925992165	1457.09066490319	1092.63979436399	130.175054304917	2457.63668254819	1093.51530463054	150.917596325812	1648.32744462424	651.011654933888	128.276136516073	1161.09243760977	1190.97897352119	170	1658.51192963125	893.157078264588	141.740435362188	1569.76505406793	1530.0993967798	184.898917788843	2189.79317612795	1311.23945675001	139.437074622894	2347.40541807291	807.878373415924	150.584173700062	1134.92262623869	628.15207713803	128.244902365457	1396.07525004906	968.78461531424	139.023779221956	1906.87534580954	339.124525106199	127	874.814650501439	670.878392827352	182.143386877018	1110.93912385626
292.074238758795	141.355287780889	588.400706954259	1420.22575289018	229.291953063034	2015.43345565974	670.926411974125	141.134859772532	1288.5860151515	1027.22892330004	162.077556980975	1457.79498603699	1092.43007217016	130.184813108242	2459.63092027278	1093.65843352408	150.90024501174	1650.39650838734	649.908576675549	128.225536559432	1160.63218410371	1190.53258588379	170.001327222897	1660.0928675729	892.474749132487	141.714286269975	1569.72271093664	1529.01975996581	184.8861026212	2189.90275444027	1310.89900949751	139.416641147968	2349.22870805321	807.908833318744	150.555456396746	1136.18228158668	628.271200164271	128.256079004831	1398.28984652357	968.988495203045	139.011749802608	1908.69676384504	339.138841441223	127	875.679056574119	670.870624555492	182.082229950902	1112.20109421772
292.115224601697	141.314587047375	588.825052866803	1420.99621827237	229.492912630269	2017.130091619	671.071013153384	141.119874853948	1289.68801003285	1027.39264659338	162.046700926337	1459.0778829083	1092.34101988161	130.188136137596	2461.75167558849	1094.00792770487	150.89075287345	1652.56578413967	648.753399644873	128.171990074511	1160.08822282078	1190.26556872046	170.005977475148	1661.70290602812	891.68489241328	141.667779150469	1569.78093100556	1527.8291751358	184.881540282327	2189.99565429988	1310.62241214075	139.38056447426	2351.20881505478	807.970026583749	150.517289815804	1137.54344430301	628.423430326691	128.275276298725	1400.53038534368	969.246602314483	139.005977475148	1910.60910621363	339.16138135366	127	876.539291919007	670.883052590167	182.042833722609	1113.45903235357
292.149953422285	141.275615059374	589.407972993165	1421.77807531032	229.711293552541	2019.27769879619	671.269654552947	141.102409434054	1291.19059319216	1027.6612771246	162.02643366775	1460.84677731119	1092.41106785788	130.186804107525	2464.06202606253	1094.59191566363	150.893290084935	1654.91790362434	647.660002113361	128.125379982522	1159.63722269543	1190.24127707879	170.017727277756	1663.42677584092	890.854869901936	141.610375889738	1570.0202267628	1526.65306891728	184.8861026212	2190.24308494557	1310.4827812401	139.334239511607	2353.44837701457	808.103469696178	150.4808615046	1139.06365284148	628.629196653731	128.296432004933	1402.66036220569	969.603308142887	139.005977475148	1912.52965393478	339.201039439814	127	877.330590754438	670.94463565646	182.023704752903	1114.63341314762
292.171200170357	141.240609391394	590.067411899973	1422.51262992958	229.927080853422	2021.60251816521	671.475335064713	141.082403674188	1292.91875720427	1027.96811886744	162.016400054859	1462.90577074708	1092.63890403646	130.182962390819	2466.57996251502	1095.37387950144	150.909881843156	1657.47167799563	646.709499805179	128.092932147353	1159.42774725246	1190.46384419012	170.041506499712	1665.30340580626	890.054728718955	141.55483359836	1570.53481428105	1525.60628341622	184.898917788843	2190.8324508173	1310.53782864769	139.283070625087	2356.10089466699	808.336390022366	150.457968362172	1140.80725471488	628.91149081989	128.317555102407	1404.59829019207	970.092158046719	139.013077025505	1914.4063834025	339.265969828021	127	878.01488408015	671.08417525455	182.023704752903	1115.68344897891
292.175583361664	141.210695001568	590.711875415961	1423.16894686581	230.125911946559	2023.82333166119	671.645464445756	141.061156926116	1294.66255374678	1028.24680888097	162.016400054859	1465.00738589988	1092.98674286915	130.178400051946	2469.25128221558	1096.26346159971	150.939641240033	1660.15377088776	645.940981546729	128.077579698651	1159.54891691655	1190.88613031847	170.082229950902	1667.3067137127	889.343744710168	141.50992306656	1571.4080268524	1524.77374037345	184.917596325812	2191.91566475905	1310.81153651847	139.233505033862	2359.28914460645	808.671804506229	150.458509836773	1142.81010253356	629.288887973798	128.338998357084	1406.32625883652	970.72762811203	139.028429474207	1916.21723587879	339.364527175974	127.001327222897	878.584959477183	671.32251187463	182.042833722609	1116.60732356286
292.16435691564	141.185611274391	591.263109120354	1423.75502125497	230.299682376479	2025.71701809174	671.752276995918	141.04072345119	1296.22267018128	1028.45246621229	162.02643366775	1466.90942018305	1093.38549096239	130.173988939881	2471.95242897857	1097.13714947357	150.980080474825	1662.8121040623	645.349907793479	128.077556980975	1160.01277010374	1191.41834882689	170.143386877018	1669.35278963604	888.765557324575	141.480428227318	1572.68135694082	1524.20064695516	184.938843073884	2193.56378796574	1311.28282813383	139.192018552053	2363.03054839633	809.086422846111	150.486856135202	1145.04902026201	629.768281664127	128.362928805848	1407.87985150763	971.497505791018	139.052473253798	1917.96086999401	339.499233287963	127.004650252251	879.061505853668	671.665180928838	182.082229950902	1117.43461253682
292.143560600305	141.165584884303	591.669017141826	1424.30461376008	230.448582851582	2027.16508555617	671.787056020037	141.023779221956	1297.45708423586	1028.56787811059	162.046700926337	1468.43411071051	1093.75604253601	130.169457600627	2474.52330864984	1097.87565647296	151.02722422322	1665.25708396056	644.901214392874	128.088381149336	1160.76021415839	1191.96203968891	170.225790551206	1671.33023145088	888.336725095717	141.467631523975	1574.32966236404	1523.88141887866	184.960603771707	2195.73874572269	1311.88680976932	139.16463362509	2367.19090700466	809.532906569764	150.542106344095	1147.42991617478	630.34032682855	128.393117955613	1409.32852981711	972.362624090069	139.084936148072	1919.65113350207	339.66656069237	127.011749802608	879.484057518629	672.100769850488	182.143386877018	1118.21007195053
292.121009347012	141.149426403365	591.920208588072	1424.86796766671	230.577663693398	2028.18170701887	671.761220281655	141.011749802608	1298.31609929152	1028.60979250961	162.078884203872	1469.51646624428	1094.03203589888	130.16356636017	2476.81407636571	1098.39988682387	151.076758814826	1667.32417301639	644.545860391246	128.102409434054	1161.68546661523	1192.43784300922	170.326872762363	1673.14029131966	888.054286459965	141.468254184417	1576.26309198784	1523.77887563002	184.982198253191	2198.30142681669	1312.5372443284	139.15511396195	2371.50428127133	809.958870204439	150.617680587782	1149.80682499847	630.978063850577	128.431278002873	1410.74828408032	973.269922327384	139.124454348275	1921.30123724086	339.857128972618	127.023779221956	879.89686051737	672.602413352684	182.225790551206	1118.97919343363
292.105226124336	141.134859772532	592.046195848272	1425.49337622137	230.694513871661	2028.89789037528	671.700598088943	141.004650252251	1298.84845727218	1028.61998448824	162.1239101739	1470.214481446	1094.17245082131	130.15462082999	2478.73617799596	1098.69087696047	151.125647181409	1668.93292106178	644.239471612373	128.1138973788	1162.67539168841	1192.80399148312	170.440770141163	1674.73712640502	887.898632423586	141.478241320923	1578.34377609467	1523.83425357344	185.005977475148	2201.05024274981	1313.14919972269	139.16463362509	2375.64103697945	810.318781979491	150.702883934741	1152.0185588352	631.646476515109	128.478170563	1412.20163558373	974.164571889575	139.168216612421	1922.92081609365	340.057390704935	127.04072345119	880.339933501896	673.136379725262	182.326872762363	1119.77763751277
292.101336202931	141.119874853948	592.103693753752	1426.204167154	230.807459991249	2029.51085573237	671.631937324046	141.001327222897	1299.17340086073	1028.64500287075	162.183312162058	1470.67882733558	1094.17464950217	130.142238939629	2480.29931111707	1098.79097251965	151.172539811108	1670.11712275854	643.955281224767	128.118459717673	1163.65217861802	1193.0645879235	170.559229858837	1676.14579109445	887.8512900794	141.494205728992	1580.42047322814	1524.00400480176	185.036856247461	2203.77397324421	1313.67482348836	139.192018552053	2379.30243005309	810.593710989504	150.787286474299	1153.93303434146	632.308264093888	128.530006770247	1413.72294559862	975.005685154548	139.214028330745	1924.51493153457	340.252362856339	127.061156926116	880.83900500022	673.669979782662	182.440770141163	1120.62543395694
292.110553531655	141.102409434054	592.159165476527	1426.99597468143	230.922246578062	2030.22491558063	671.575695913237	141	1299.44310782478	1028.72280999716	162.255957032922	1471.10401217899	1094.07045202709	130.125647181409	2481.59445536872	1098.78601048665	151.215777756107	1671.00582548747	643.692570119828	128.1138973788	1164.58988073521	1193.25956378605	170.673127237637	1677.446829465	887.901871454276	141.514472987579	1582.36780858757	1524.26780981818	185.080902728005	2206.30926016774	1314.11038921571	139.233505033862	2382.3053551886	810.792009295718	150.861263375233	1155.47997766159	632.933647398689	128.581946415531	1415.32582869435	975.773552353762	139.259721205645	1926.09060654145	340.428658149462	127.082403674188	881.406823312901	674.179443709761	182.559229858837	1121.53098353023
292.132166131157	141.082403674188	592.270565688545	1427.83739782495	231.043377896984	2031.20062867493	671.53956913261	141	1299.79749364376	1028.86961943131	162.339600016629	1471.6711552307	1093.91445582489	130.105732463407	2482.76581685789	1098.77449232304	151.255065391173	1671.77791694601	643.471547528755	128.101082211157	1165.51634578199	1193.44447440956	170.774209448794	1678.74629901	888.050690294348	141.539398247039	1584.1146912889	1524.63390188158	185.143386877018	2208.57319797722	1314.49107274565	139.283070625087	2384.61929348902	810.942532665407	150.919097271995	1156.66249177988	633.506018452261	128.627055699279	1417.00274871809	976.469238573738	139.305374456252	1927.6566014558	340.578082119091	127.102409434054	882.041743828652	674.653274570835	182.673127237637	1122.49558413969
292.161925528035	141.061156926116	592.474928295655	1428.6786947557	231.173317297408	2032.51975310272	671.519086744023	141	1300.32749385867	1029.0786043229	162.429020338555	1472.50023159652	1093.77124672862	130.083730897085	2483.9602812474	1098.83961229184	151.28966878149	1672.60360624087	643.324456067652	128.082403674188	1166.49475213978	1193.67534511987	170.856613122982	1680.13805190786	888.308474034506	141.569786828311	1585.65030314077	1525.1308787383	185.225790551206	2210.56820369071	1314.87388976229	139.334239511607	2386.34820371853	811.082546260814	150.958493500288	1157.54067931506	634.017602206185	128.657779596109	1418.74228595184	977.103667285099	139.349851780343	1929.23231117964	340.6953196827	127.118547631051	882.735291415301	675.0887719274	182.774209448794	1123.51862764531
292.197343921545	141.04072345119	592.783280164979	1429.47682890793	231.314843343015	2034.18150545141	671.50376619147	141	1301.06254092171	1029.33023388774	162.518073130364	1473.63401739922	1093.69867541865	130.061156926116	2485.28252791808	1099.0317819518	151.31818719016	1673.59691468085	643.286807249892	128.061156926116	1167.59460858948	1193.9917819605	170.917770049098	1681.67402419971	888.684473528642	141.608109963424	1587.01976961341	1525.79049451593	185.326872762363	2212.36980977009	1315.31138856429	139.381891697157	2387.68026234013	811.242345796379	150.982272722244	1158.20650557956	634.466868097007	128.66845426771	1420.52050219506	977.687232203073	139.392334907092	1930.82812184547	340.778840694498	127.130209520281	883.466106058648	675.486720763809	182.856613122982	1124.59214162159
292.236480329804	141.023779221956	593.181218764892	1430.20492303858	231.46919961537	2036.10863114369	671.485359453046	141	1301.97027153881	1029.60340938611	162.600910081835	1475.0335664984	1093.73492519939	130.04072345119	2486.76005771745	1099.35980723302	151.340214948927	1674.78414324121	643.386067177483	128.04072345119	1168.86556444016	1194.40964685881	170.958493500288	1683.34674942509	889.180283304396	141.655482532234	1588.29556315899	1526.62966562571	185.440770141163	2214.0825064362	1315.83225466342	139.422618623116	2388.80757490712	811.435957828432	150.994022524852	1158.74854171336	634.852556945391	128.658054405675	1422.30399411858	978.220339300084	139.431988393587	1932.44275475444	340.829056283978	127.137676600757	884.205837441025	675.846610894644	182.917770049098	1125.69978282676
292.278416898068	141.011749802608	593.637127451554	1430.85929339375	231.636809557488	2038.18298470803	671.459431522677	141	1302.97791146287	1029.88096102205	162.673127237637	1476.60893066798	1093.89401481419	130.023779221956	2488.34757440525	1099.80036908283	151.356267270374	1676.11764853318	643.637735119874	128.023779221956	1170.32345479016	1194.92337423629	170.982272722244	1685.10028590707	889.780035079447	141.709459235525	1589.5499945355	1527.63551001282	185.55790263594	2215.80394736203	1316.42671149388	139.453474677753	2389.86583547105	811.654252259706	150.998672777103	1159.22756292936	635.16827768199	128.628128792459	1424.04183128413	978.687994078224	139.467211315861	1934.05112618157	340.845285522839	127.141805662347	884.913976332792	676.160377058194	182.958493500288	1126.81061902039
292.323287875148	141.004650252251	594.10815391652	1431.45958175065	231.817841337552	2040.26559555935	671.42850158163	141	1303.99015239297	1030.1545091579	162.732529225795	1478.23750207371	1094.16526553006	130.011749802608	2489.95488379193	1100.30746230696	151.367990880537	1677.50791979296	644.044650501963	128.011749802608	1171.95735497814	1195.50753148101	170.994022524852	1686.85656942697	890.453579967782	141.766490158964	1590.83049072737	1528.76868286479	185.668476985386	2217.59232651897	1317.06033454136	139.476045173953	2390.89752856337	811.873582185217	151	1159.66630716337	635.405220861483	128.586850797498	1425.65975475654	979.066194659405	139.497259659575	1935.59401917978	340.828183648775	127.143560600305	885.541746266495	676.416426489717	182.982272722244	1127.87440377417
292.369878170431	141.001327222897	594.549994312824	1432.04254284561	232.015936618986	2042.22511141832	671.399971194449	141	1304.90803212479	1030.42086817128	162.779310133782	1479.78956351366	1094.51798328828	130.004650252251	2491.46746881299	1100.82655748776	151.379613215047	1678.85105790293	644.596285884135	128.004650252251	1173.73032341166	1196.12190248698	170.998672777103	1688.53005142698	891.161406978625	141.818255929337	1592.15247992997	1529.96747956203	185.761132423289	2219.45787670255	1317.6832142708	139.491397622655	2391.87000262109	812.064654251602	151	1160.0582257503	635.555942214663	128.544136209083	1427.08106346823	979.328555727067	139.522637902972	1937.00020384552	340.779816472853	127.143560600305	886.0444352785	676.602643141001	182.995349747749	1128.83496615814
292.416990919207	141	594.923239264489	1432.65324411168	232.239527312093	2043.96074450775	671.383060264769	141	1305.64786496417	1030.67884720725	162.815622472906	1481.15014504025	1094.91097985946	130.001327222897	2492.79172749304	1101.30689195445	151.393657392387	1680.06904597621	645.270650901248	128.001327222897	1175.59219853031	1196.71965672375	171	1690.05424309524	891.855800501152	141.856613122982	1593.49523271466	1531.1511130486	185.826856425878	2221.35905160069	1318.24011943006	139.501297679301	2392.70074537268	812.1948584757	150.998672777103	1160.37912520763	635.621049302139	128.50992306656	1428.23285679589	979.459659192962	139.543853720998	1938.19142560892	340.707000578477	127.141805662347	886.387898076961	676.713834322631	183.004650252251	1129.63760648751
292.46375119697	141	595.201055544046	1433.33915291013	232.508017196145	2045.41088328526	671.38716947113	141	1306.14923419336	1030.92708527532	162.844684034866	1482.23117607316	1095.30426866701	130	2493.86106021848	1101.7153411881	151.413138833106	1681.11999953151	646.037874016978	128	1177.48058905076	1197.25584500711	171	1691.38350797259	892.494028366437	141.873723568555	1594.81252567236	1532.24022239056	185.86064654305	2223.21639469734	1318.6912032336	139.507554771188	2393.30246374274	812.243031747274	150.995349747749	1160.60515929748	635.611564774528	128.491125616595	1429.0683608504	979.461796244815	139.561767070321	1939.10529842255	340.620480260552	127.137676600757	886.559486612448	676.75645259773	183.017727277756	1130.24304963691
292.509822735328	141.001327222897	595.372400071917	1434.14350306447	232.849462013619	2046.55918467728	671.420168455546	141	1306.38323713397	1031.16313239207	162.869702566341	1482.97945737163	1095.66739730261	130	2494.66322548745	1102.03852928309	151.439984392868	1682.0129168275	646.859798536039	128	1179.33271829221	1197.69161382386	171	1692.50158044564	893.038919474967	141.865130578961	1596.04628245807	1533.1567358377	185.860480326711	2224.93311725087	1319.01002192092	139.509669074786	2393.62397893848	812.19833007429	150.988250197392	1160.72795800867	635.549667496474	128.489829393317	1429.57915771748	979.355986809946	139.575816054836	1939.7064170091	340.534400123434	127.130209520281	886.570477111582	676.749553436678	183.041506499712	1130.6375761401
292.555448530659	141.005977475148	595.443858212309	1435.09950325812	233.294254096052	2047.42617953036	671.489185312492	141	1306.35556299975	1031.3836603933	162.892940313696	1483.37904110219	1095.98312885331	130	2495.2282762643	1102.28653843669	151.472439468947	1682.79509484467	647.697427916292	128	1181.08688178047	1197.99998464472	170.998672777103	1693.41313414098	893.465153717634	141.830716122659	1597.1318682298	1533.84123666338	185.829388899762	2226.40074572537	1319.19025242984	139.506901228591	2393.65490909211	812.063540505883	150.976220778044	1160.7503512443	635.465012479749	128.503254290177	1429.79678352045	979.179367656555	139.58620213874	1939.98887577634	340.464282164233	127.118547631051	886.45302215671	676.721498569418	183.082229950902	1130.83524684476
292.60260775582	141.016400054859	595.434280660019	1436.22202784198	233.866362688339	2048.04978719999	671.59759458023	141	1306.09659498061	1031.58299635343	162.916269102915	1483.44093328435	1096.24752521528	130	2495.6152597567	1102.48465615335	151.509009462183	1683.53246884881	648.513869362508	128	1182.6928074662	1198.16849396658	170.995349747749	1694.13607848379	893.761666810892	141.774659881531	1598.02071218643	1534.26138955831	185.773332658634	2227.53364508331	1319.24306666161	139.498500647781	2393.4424381025	811.853079987144	150.95927654881	1160.69237699908	635.386726476669	128.524050605512	1429.78438301742	978.97500445314	139.591259475828	1939.97195097455	340.422453793288	127.102409434054	886.250086723837	676.702640746941	183.143386877018	1130.87108264165
292.652685500715	141.035529024564	595.367527399383	1437.49606896444	234.571881307279	2048.47053350317	671.741468789772	141	1305.6496476968	1031.74828352738	162.938843073884	1483.18957680076	1096.46328445746	130	2495.88816431877	1102.65884927836	151.545839224093	1684.2818994865	649.276717975514	128	1184.11650280972	1198.19146587713	170.986922974495	1694.69092370714	893.93336987918	141.704358550537	1598.68116146874	1534.41665471203	185.699708298286	2228.27662692138	1319.19236063137	139.482020611274	2393.06822641778	811.590252643186	150.937515850987	1160.57731525276	635.338014488305	128.544403407969	1429.6243692182	978.778670919554	139.592226409517	1939.69423163381	340.414986712813	127.082403674188	886.006765794248	676.718408714047	183.225790551206	1130.79484463526
292.708912557841	141.065829896043	595.268089417633	1438.88378242296	235.393242519128	2048.73283886325	671.913652801938	141.001327222897	1305.06896627084	1031.86462694593	162.95927654881	1482.66155099296	1096.63437983131	130	2496.09517385021	1102.82715376909	151.579235618702	1685.06804319123	649.961117710388	128	1185.34393096616	1198.07530048456	170.971570525793	1695.0949800288	893.99914955803	141.627574248688	1599.10638193981	1534.34367141136	185.61582444608	2228.61304294098	1319.07231108859	139.455863790917	2392.62116946528	811.301818878946	150.912946073561	1160.42561449686	635.330472501167	128.557099662616	1429.40066750022	978.613431454167	139.588852166177	1939.2068607852	340.442351355835	127.061156926116	885.760801056073	676.781665222042	183.326872762363	1130.65951660452
292.771943384538	141.106530629557	595.15559917915	1440.32252699677	236.28670034118	2048.87917069954	672.100163432542	141.004650252251	1304.4074732758	1031.91772226121	162.976220778044	1481.90157101908	1096.75890690038	130	2496.25533484072	1102.98814930848	151.606770322674	1685.87422619208	650.546001899582	128	1186.37656615688	1197.83079057091	170.947526746202	1695.36202705718	893.989680754521	141.552842599077	1599.31587023467	1534.10902135876	185.527736154224	2228.57554770797	1318.91923949273	139.419878301771	2392.18045306844	811.015450883098	150.887167986235	1160.25115822687	635.36230708356	128.557213063017	1429.18375904592	978.486746314207	139.583367114027	1938.56541429994	340.497899209434	127.04072345119	885.536110534517	676.891794700973	183.440770141163	1130.51100408966
292.840837510986	141.15663762581	595.045141994439	1441.7271499026	237.191024320048	2048.96659689221	672.282564689996	141.013077025505	1303.72184471343	1031.89085954599	162.988250197392	1480.96973955516	1096.82950411141	130	2496.34589635493	1103.12569619497	151.628818365381	1686.63649885136	651.013647973704	128.001327222897	1187.22239170723	1197.47860702877	170.915063851928	1695.49582440585	893.938633584504	141.486143844604	1599.34745022582	1533.79442195554	185.440770141163	2228.23325561641	1318.76648215493	139.374940245121	2391.79185918466	810.753780697205	150.862323399243	1160.0590746876	635.421893869822	128.544157026875	1429.02229843986	978.392692091645	139.577236753332	1937.8366973957	340.571073137044	127.023779221956	885.34376157691	677.033871036975	183.559229858837	1130.38526807662
292.911618850664	141.213242582449	594.94791512774	1443.01292505863	238.038024877136	2049.06913137906	672.441786926344	141.028429474207	1303.06923012524	1031.77819698878	162.995349747749	1479.94487749376	1096.83504492841	130	2496.31951939289	1103.21151569302	151.646125317559	1687.26437802958	651.349568220254	128.004650252251	1187.89067743403	1197.04589697138	170.876872874622	1695.50031916461	893.875814761127	141.432600418596	1599.2586180302	1533.47962615406	185.358366466975	2227.69051141814	1318.6367957439	139.324164665308	2391.47576899579	810.532209169425	150.840816831137	1159.85495352959	635.491744013031	128.518500845425	1428.93885769928	978.321446825279	139.57230132212	1937.09027211712	340.650131064203	127.011749802608	885.181753162664	677.184254478186	183.673127237637	1130.30416239038
292.977868851088	141.272103096006	594.872129818888	1444.10168688136	238.76563438214	2049.26995732973	672.56103928694	141.052473253798	1302.5038612423	1031.57977681619	162.998672777103	1478.92175457482	1096.7650303766	130	2496.1046100899	1103.21640034515	151.659783013246	1687.65486723204	651.542342967242	128.011749802608	1188.38156771908	1196.56235121527	170.83643363983	1695.37224387651	893.824433397882	141.395253714055	1599.11046399072	1533.22734374804	185.283093342763	2227.05878564561	1318.53955221449	139.271343540155	2391.21300146724	810.356137842114	150.824945695083	1159.63910275743	635.555979891272	128.486579425752	1428.93249976102	978.263697312114	139.570188350927	1936.39531633101	340.724913997373	127.004650252251	885.04141717907	677.317562747298	183.774209448794	1130.2761293638
293.030602062863	141.329043047154	594.824978193775	1444.92867058652	239.330131408342	2049.64746011459	672.625348356839	141.084936148072	1302.07222881266	1031.29922360589	163	1477.99823282225	1096.62249023495	130	2495.6206884237	1103.12589115847	151.671185082442	1687.70955539095	651.59325680579	128.023779221956	1188.68547619214	1196.06430141438	170.797721471864	1695.09775822761	893.797582217376	141.376093744731	1598.9570768685	1533.07621229776	185.216560804629	2226.4327639307	1318.47264225217	139.222333132089	2390.94576343235	810.220892896775	150.816514114655	1159.40310326091	635.600401087831	128.454126783408	1428.98464782362	978.211027494574	139.571276433639	1935.81134027489	340.787560528817	127.001327222897	884.912792363393	677.408558346518	183.855285900085	1130.29711709263
293.060641076481	141.379263443808	594.810192657072	1445.45635257782	239.712050591354	2050.2453546009	672.627127053507	141.123127125378	1301.80134269475	1030.9443154816	162.998672777103	1477.25262810196	1096.42464700237	130	2494.78855577566	1102.94365462177	151.67820173018	1687.35236225658	651.520078950638	128.04072345119	1188.7831706464	1195.58840616197	170.764058016311	1694.65036293773	893.798351693361	141.374766521834	1598.83222951605	1533.03432904979	185.159532940102	2225.87010206144	1318.42392604931	139.181984939162	2390.58456057294	810.114660630617	150.815186891758	1159.12599604463	635.61626170053	128.42821722729	1429.05825246662	978.155736316507	139.574056309704	1935.36867270308	340.833968394089	127	884.784759829575	677.438538632082	183.913119796848	1130.34846436628
293.061880385999	141.41794217842	594.827398137693	1445.67217250858	239.91862764034	2051.0595272274	672.564771732035	141.162239137273	1301.69490789394	1030.52287056534	162.995349747749	1476.73215647128	1096.20367156384	130	2493.56499744041	1102.69626094263	151.677256299227	1686.55530253937	651.359662464014	128.061156926116	1188.661030415	1195.16832126211	170.735348994938	1694.00736708312	893.821706237415	141.389276238908	1598.7368325059	1533.08639960375	185.112160371292	2225.37243103377	1318.37867267235	139.152883822482	2390.0072641288	810.0223139642	150.820295442833	1158.76952722542	635.596061365958	128.415923250306	1429.10026943733	978.085199458039	139.576695278731	1935.05812338549	340.862136010435	127	884.646009756552	677.3951267426	183.94674369768	1130.39784853097
293.030340205002	141.442271087347	594.873685528442	1445.58737570212	239.978207034089	2052.0290708719	672.444168043551	141.196301052989	1301.73256756091	1030.04263874182	162.988250197392	1476.44418716231	1096.00349861831	130	2491.94984581065	1102.42934693313	151.663132372987	1685.34837106691	651.165789240025	128.082403674188	1188.31662968328	1194.83644722152	170.709977922877	1693.1576102492	893.857660512726	141.416200363738	1598.64253832687	1533.19869331273	185.075561174518	2224.89994262892	1318.32515494626	139.136718100634	2389.09569515178	809.928746254325	150.829067028529	1158.29309810201	635.533943891262	128.419792491862	1429.05026422213	977.982540187169	139.574831747546	1934.8348140152	340.870112350952	127	884.486128500394	677.272624315491	183.958493500288	1130.40461644715
292.96811791385	141.450156455573	594.938965312733	1445.23412307613	239.932115295044	2053.04089869801	672.274276336879	141.21954192883	1301.86890068555	1029.51260738411	162.974893555147	1476.35306341659	1095.86700343234	130	2490.02201257688	1102.19382346169	151.631882595786	1683.84123816946	651.000728711806	128.101082211157	1187.77989624607	1194.61572807607	170.684091291949	1692.13019360415	893.89448086961	141.449287597143	1598.50385506173	1533.33506282118	185.050023955691	2224.39905068184	1318.26231660863	139.13242762988	2387.77869122541	809.82745333326	150.83721695439	1157.67253608809	635.424514236283	128.441031999025	1428.84590570882	977.83028440963	139.56694637932	1934.6297621522	340.856613122982	127	884.29362838382	677.075613715153	183.953299073663	1130.32652561067
292.881719567835	141.442507148672	595.008917882551	1444.66266917426	239.823573669103	2053.95434131453	672.067981174287	141.227794757601	1302.042802324	1028.94591202446	162.954626296559	1476.39162276902	1095.82434679871	130	2487.93360087422	1102.0322325979	151.581515779499	1682.20696280561	650.919839916262	128.1138973788	1187.1164723311	1194.51787847758	170.652693762711	1691.00031520531	893.925957049898	141.482362450784	1598.28380664828	1533.46662574402	185.036856247461	2223.84348599761	1318.20370991617	139.137938458618	2386.08151796222	809.720797353637	150.841794282795	1156.92413957564	635.266474918524	128.476148979954	1428.4518686363	977.615966547601	139.552130308479	1934.38822999756	340.820539924043	127	884.066232330696	676.816663071808	183.937515850987	1130.13993406649
292.780985090091	141.421721202732	595.063764520369	1443.93101193644	239.688100815365	2054.62611348813	671.83414774524	141.21954192883	1302.18243734448	1028.35707946432	162.927093271276	1476.47299671152	1095.88419375129	130.001327222897	2485.88567449471	1101.96375024986	151.515183378293	1680.65032188171	650.957025236872	128.118459717673	1186.41488219836	1194.53553006648	170.612484261272	1689.88023319262	893.950762569405	141.507966593627	1597.97595841071	1533.574863869	185.035529024564	2223.2648094253	1318.16710086608	139.149426403365	2384.15284359509	809.616235811332	150.840039344837	1156.11655620252	635.066873553857	128.518783383135	1427.8745363078	977.342474157551	139.532925773676	1934.0946643276	340.763507252343	127	883.813307297624	676.518864440881	183.917596325812	1129.85067419781
292.678837513898	141.391013246416	595.080536590569	1443.1077871632	239.550002012143	2054.94012203127	671.582680619965	141.196301052989	1302.21705158751	1027.76670488589	162.893817103856	1476.50478875168	1096.03107071289	130.004650252251	2484.09235941354	1101.98033636648	151.437691455078	1679.36583176664	651.115039838122	128.1138973788	1185.76997042831	1194.64621882679	170.5626748601	1688.89917841399	893.977648332172	141.521945896314	1597.61062762637	1533.65980993162	185.045373703441	2222.75041298872	1318.17640955682	139.163833421114	2382.23489993732	809.525713144868	150.831332954842	1155.35813137919	634.843214981291	128.562046687061	1427.17338445716	977.028119527306	139.513956486628	1933.78740463337	340.691134132133	127	883.558181196483	676.213343668728	183.898917788843	1129.50071450789
292.58845953702	141.353693497048	595.042535839788	1442.26984258782	239.42242421998	2054.84658372052	671.324155060276	141.162239137273	1302.09965812078	1027.20414815764	162.858194337653	1476.42245488663	1096.23504979172	130.011749802608	2482.73167864261	1102.05614538974	151.359693689872	1678.49420269348	651.361630115226	128.102409434054	1185.24989357578	1194.81932418215	170.507106376278	1688.17133358551	894.022785418684	141.520898995579	1597.24850574309	1533.73469780139	185.06381137191	2222.42065244259	1318.25103416146	139.176381527814	2380.61195062549	809.462461980948	150.817470886464	1154.77085991075	634.623390864044	128.599155143877	1426.46000865152	976.709776206922	139.50167497539	1933.56036417626	340.613030335531	127	883.338720743961	675.936258059365	183.8861026212	1129.16612444388
292.52193472703	141.312590485871	594.94624307782	1441.49560388675	239.310398238451	2054.37870360391	671.073978148602	141.123127125378	1301.82274291155	1026.70719996041	162.824945695083	1476.20853702112	1096.4616002002	130.023779221956	2481.92507467699	1102.16048106228	151.2908222811	1678.10952698882	651.637998442278	128.088381149336	1184.87962950189	1195.02675022059	170.453847166669	1687.7803847593	894.099649767824	141.505149765402	1596.95797473809	1533.81312449297	185.087053926439	2222.38233779853	1318.39732631423	139.183485885345	2379.52646563227	809.435607138938	150.801166473127	1154.4566735068	634.439107839921	128.623697396453	1425.86529325969	976.433047633725	139.501382892905	1933.52312002929	340.542106344095	127	883.191583326483	675.721737680778	183.881540282327	1128.93380742449
292.487725059275	141.269749256314	594.806719845925	1440.85716211289	239.215367971495	2053.65284193209	670.853401786517	141.084936148072	1301.43178736847	1026.31863185087	162.799136608139	1475.90769045995	1096.68788550614	130.04072345119	2481.72490966506	1102.28275514338	151.242190606065	1678.22617084583	651.874842110377	128.077556980975	1184.63726490832	1195.25825894201	170.413403194276	1687.77302794368	894.215336833934	141.480695426204	1596.79121117043	1533.90372759554	185.114159236662	2222.69142939382	1318.60999727322	139.183485885345	2379.12044345753	809.453268209636	150.78738680553	1154.4719906732	634.31951756151	128.632403786447	1425.50677937245	976.24441492303	139.515271153729	1933.76985619005	340.491506387453	127	883.141805297036	675.596646873451	183.8861026212	1128.87858018738
292.488964368794	141.227527558715	594.657063746906	1440.406630853	239.138736624767	2052.84579977318	670.685368407947	141.052473253798	1301.01834055133	1026.07772644323	162.785020410043	1475.61988953171	1096.9119271415	130.061156926116	2482.13308152779	1102.44030878297	151.22227108089	1678.82777737015	652.013154065315	128.076252475754	1184.47541813539	1195.52610514839	170.396020880586	1688.16590160054	894.364906046947	141.454126783408	1596.773295923	1534.00662447163	185.143654075904	2223.33836215704	1318.87561369117	139.175054304917	2379.42048399439	809.524073041986	150.780370157792	1154.82406351912	634.283552955798	128.624805763105	1425.45516106101	976.177115012583	139.541328857794	1934.34210674411	340.470259639381	127	883.19271892895	675.574358081444	183.898917788843	1129.04015594418
292.523000092065	141.18761264307	594.542941545658	1440.16911646069	239.080902728005	2052.15762425991	670.591074445314	141.028429474207	1300.70406818788	1026.01029563962	162.785020410043	1475.47590941089	1097.15361164486	130.082403674188	2483.10770110874	1102.67908405949	151.235113773384	1679.88518173624	652.022047721339	128.088281895102	1184.34328737213	1195.86033084588	170.407775490368	1688.94938480447	894.536891569692	141.434101226838	1596.88474533898	1534.12299073244	185.176910446619	2224.23327914005	1319.18766607267	139.159183168863	2380.33342964508	809.662116569436	150.783693187146	1155.46778576961	634.336383117942	128.604074643472	1425.71700545292	976.245043424138	139.575123712566	1935.21454230169	340.483074807025	127	883.325378737845	675.653507376802	183.917596325812	1129.41288463243
292.584686074929	141.152080849159	594.504571282844	1440.14214127147	239.041506499712	2051.74541653022	670.583040929141	141.013077025505	1300.59397767799	1026.12093743011	162.799136608139	1475.58314203083	1097.44549116592	130.101082211157	2484.58435838269	1103.05501256907	151.281325335636	1681.3684423479	651.908110262794	128.113630179914	1184.22197818428	1196.29780545237	170.450782936263	1690.09561559964	894.716034022034	141.427947107433	1597.09273123875	1534.25763818202	185.216560804629	2225.25852665869	1319.54791628874	139.139003823654	2381.72274903323	809.88163902351	150.799136608139	1156.33792750896	634.469239473337	128.576863660993	1426.23542224728	976.438777296425	139.609689395676	1936.2967854242	340.528889653835	127	883.50299734232	675.819091253679	183.938843073884	1129.94650409765
292.665338285928	141.122132518266	594.567566370587	1440.29549237385	239.017727277756	2051.69596306239	670.660373239273	141.004650252251	1300.74982751595	1026.38748251415	162.824945695083	1475.99474703686	1097.81685324151	130.1138973788	2486.46065389842	1103.6074934291	151.356087984866	1683.22536340226	651.708629655606	128.148210852555	1184.1225383469	1196.85827868348	170.519654345035	1691.54396980737	894.88915693706	141.439727493804	1597.35475271225	1534.41952646388	185.265715836247	2226.28724341803	1319.96577902502	139.117482266016	2383.43555472979	810.194648262311	150.824945695083	1157.3583415478	634.667891804186	128.550276066662	1426.91830230868	976.731966712645	139.63970292227	1937.46950247418	340.602151494823	127	883.689273808778	676.049804131566	183.95927654881	1130.5675465641
292.757988916657	141.100130951944	594.735819682791	1440.59026759054	239.005977475148	2052.01631578294	670.812265688267	141.001327222897	1301.1740186138	1026.76893055654	162.858194337653	1476.69052845994	1098.27713561468	130.118459717673	2488.61514527586	1104.33762137189	151.451309955184	1685.37400551977	651.477348767137	128.184813108242	1184.09124157989	1197.53296748336	170.605930785174	1693.20727533843	895.048671625663	141.46919961537	1597.63955709305	1534.62301340033	185.326872762363	2227.2163814778	1320.45279753727	139.098803729047	2385.33786454307	810.601887217808	150.858194337653	1158.45668659367	634.914800541961	128.532378124532	1427.66636053355	977.08810298778	139.66163929289	1938.61571530832	340.695766625505	127	883.858710779181	676.321682490695	183.976220778044	1131.2007695899
292.857766622592	141.087590593866	594.991456654823	1440.99145926096	239.002654445794	2052.64054950285	671.021518067705	141	1301.80594831878	1027.21909269233	162.893817103856	1477.58385716459	1098.80977694013	130.115224601697	2490.89687429257	1105.1991338515	151.555994742861	1687.68282910754	651.267558134685	128.216306812854	1184.18002045873	1198.28073745966	170.69823368249	1694.96723035092	895.190839255906	141.513252629596	1597.93998444694	1534.87370412976	185.400844856123	2227.99496738172	1321.00491511279	139.086263370969	2387.33050934918	811.084694688586	150.893817103856	1159.57056656042	635.195158915035	128.527300573077	1428.39966585879	977.471155545157	139.676472984667	1939.64652178031	340.801687663788	127	884.00613234973	676.615669304559	183.988250197392	1131.78595999187
292.96262229584	141.08609715463	595.304422614396	1441.46977785845	239.004650252251	2053.47417270181	671.269501449252	141	1302.55425311963	1027.69360038833	162.927093271276	1478.55654828362	1099.37229714018	130.105732463407	2493.13399118701	1106.10880389876	151.660312069993	1689.97317743436	651.116547372999	128.237007348724	1184.42406172548	1199.03701924524	170.785959251402	1696.67912935048	895.313448269484	141.565207333984	1598.26579791695	1535.16235085815	185.486055931226	2228.61229610737	1321.59809478338	139.082774125277	2389.32251138147	811.604317494787	150.927093271276	1160.63866805379	635.4980805434	128.537031851552	1429.07128715906	977.851175839656	139.687409514129	1940.51911285132	340.914273296458	127	884.145167301999	676.916455999103	183.995349747749	1132.29230093434
293.072906728724	141.09668595068	595.642073399001	1442.01048216835	239.010422579711	2054.41899578653	671.54110488135	141	1303.31939759851	1028.16367149587	162.954626296559	1479.48985961609	1099.90624341639	130.094153476796	2495.16143837516	1106.96678615067	151.755530911825	1692.04765385361	651.042951194131	128.244106899082	1184.83068160077	1199.72992389098	170.861263375233	1698.20035278352	895.412150794787	141.619699249857	1598.63585188262	1535.45916880513	185.57844674192	2229.09023653526	1322.1842383293	139.089586400323	2391.22298795022	812.104390497991	150.954626296559	1161.59959798425	635.812308027498	128.559579630076	1429.65994250794	978.205325480309	139.698757039074	1941.22270908521	341.027646425685	127	884.299506012841	677.212362979467	183.998672777103	1132.71135962665
293.188934303745	141.117932698753	595.97662100725	1442.5958593964	239.017801746809	2055.39430191787	671.824404220482	141	1304.02227272987	1028.60908800036	162.97356633225	1480.29623219818	1100.35377863123	130.084936148072	2496.8324484396	1107.6844953755	151.83536637491	1693.7194151471	651.048234278551	128.238758811913	1185.37168231074	1200.30032933214	170.917770049098	1699.40081229442	895.482525099253	141.672061872601	1599.05914012105	1535.72375782288	185.672061872601	2229.45241854275	1322.70477856538	139.105903279405	2392.91710231307	812.525219235187	150.974893555147	1162.38509397178	636.124836864345	128.592855797496	1430.15408460482	978.517307709045	139.715169649728	1941.75799829093	341.137583125157	127	884.488838364434	677.492683121329	184	1133.04653566031
293.309145484607	141.147783137494	596.289388993179	1443.20159293328	239.022996173434	2056.33589570087	672.108118462647	141	1304.61421012083	1029.01649625996	162.983599945141	1480.92480970008	1100.67219319594	130.08144690238	2498.04151863908	1108.20795592745	151.897336574172	1694.84976121954	651.129443760162	128.224209336535	1185.99744947624	1200.71587478762	170.953843248038	1700.18863882004	895.519762701049	141.720255879036	1599.51810086171	1535.91357953798	185.760181164076	2229.70097546602	1323.1071429206	139.13083890826	2394.26430210186	812.814372922088	150.988250197392	1162.92128376644	636.41581841305	128.633463810458	1430.53309278339	978.770498906531	139.737886206423	1942.1141528982	341.238665336314	127	884.717722097206	677.744005980457	183.998672777103	1133.2983853419
293.428815190868	141.181031780064	596.568438698983	1443.78357330768	239.018323203507	2057.18627777404	672.377231993765	141	1305.07234606977	1029.36615258596	162.983599945141	1481.3551589521	1100.84286387465	130.084936148072	2498.74016180272	1108.52368658839	151.940222048158	1695.37875239398	651.283963248466	128.204717526421	1186.65316524333	1200.97694468494	170.970522919636	1700.52423343072	895.519987119515	141.762192447299	1599.96941430121	1535.99687961939	185.83536637491	2229.81578485321	1323.35716718656	139.160598305138	2395.12959827531	812.939835655606	150.995349747749	1163.1442971503	636.660392146109	128.67724843314	1430.75870869742	978.948464605931	139.76596590939	1942.25963883293	341.32502968983	127	884.969880462488	677.951191709533	183.995349747749	1133.45757946721
293.540175358184	141.21261319447	596.80545764094	1444.28458328599	238.995523471036	2057.89479040884	672.613083143106	141	1305.39337327462	1029.63324631948	162.97356633225	1481.58933181598	1100.87091340359	130.094153476796	2498.94697926958	1108.65365087512	151.964265827749	1695.33874467578	651.511168175514	128.184284051494	1187.29819677656	1201.10689181622	170.970243302896	1700.43101037667	895.484686717167	141.798005826204	1600.35081189971	1535.9657842135	185.892686321921	2229.76192064966	1323.45197110276	139.191366446397	2395.41661076064	812.897615610556	150.998672777103	1163.01697293799	636.830789343143	128.720164490889	1430.77894230264	979.034746538718	139.795463807545	1942.14952247811	341.389945981496	127	885.211181757641	678.099957791333	183.988250197392	1133.50291232516
293.632947960822	141.238758811913	596.993573148313	1444.64008347898	238.947272754427	2058.41169136903	672.792902816551	141	1305.580010761	1029.78710197198	162.954626296559	1481.6385673626	1100.78080106134	130.105732463407	2498.72101027142	1108.64393333144	151.970522919636	1694.82927488947	651.809977142696	128.1669121072	1187.90222985245	1201.14553153391	170.957949325913	1699.97782490166	895.421893252717	141.827651892254	1600.60504064428	1535.83744268804	185.928472245549	2229.51926857142	1323.41354470449	139.220080274945	2395.10912895716	812.706537536415	151	1162.54627732508	636.902794515574	128.755955152117	1430.55167522817	979.015377089331	139.818255929337	1941.74787993421	341.427330926566	127	885.402569011198	678.177818467001	183.976220778044	1133.41516952059
293.69795697304	141.255703041147	597.126968604871	1444.7960280562	238.870305080786	2058.70505059492	672.894396663411	141	1305.63537995989	1029.80147772317	162.927093271276	1481.52094680666	1100.61203568857	130.115224601697	2498.15942038763	1108.55079214249	151.958493500288	1694.00407454991	652.17473765942	128.154076655615	1188.45154664758	1201.13614755602	170.938843073884	1699.2735654324	895.345673271241	141.850032122034	1600.69184666305	1535.65313655863	185.94181382869	2229.09384501878	1323.2800031461	139.2442150964	2394.27687581064	812.406276334628	151	1161.78264211912	636.864292232895	128.778766225445	1430.06339951494	978.887791838111	139.8276394744	1941.05346962246	341.434521518787	127	885.510649568969	678.182735314714	183.95927654881	1133.18621375643
293.729626300823	141.262020317978	597.202850442802	1444.72886593362	238.768590781876	2058.77311332119	672.904140745017	141	1305.56580196057	1029.66657081789	162.893817103856	1481.26444917865	1100.40583663837	130.118459717673	2497.3665295491	1108.42688694548	151.929519851706	1693.02857931249	652.590244314324	128.14660957514	1188.93700389175	1201.11510973275	170.917596325812	1698.44089781945	895.274668617967	141.865123072014	1600.61043531129	1535.4709736193	185.934449720697	2228.53909501524	1323.09450015991	139.263435454253	2393.07475089395	812.044296721341	151	1160.81837397248	636.716293383659	128.781158813377	1429.34496355491	978.660569758315	139.817216894689	1940.11100022223	341.411280642946	127	885.520153498161	678.118874447401	183.938843073884	1132.82885098377
293.728835745353	141.257457979105	597.222931560249	1444.45255441065	238.653476811233	2058.65086259755	672.821122138531	141	1305.38253461618	1029.39648333873	162.858194337653	1480.90770874401	1100.19897986358	130.1138973788	2496.43625644238	1108.31215248908	151.886369820086	1692.04949983246	653.030278153803	128.143654075904	1189.34395500261	1201.10294813387	170.898917788843	1697.59470980651	895.229050433316	141.873035895517	1600.39679939339	1535.35141002769	185.910413599677	2227.94378219637	1322.89208862528	139.278420372837	2391.70398894166	811.668839036537	151	1159.76704252228	636.479045028493	128.759136616832	1428.46790561795	978.361843626886	139.785381350567	1939.00970621889	341.364429752031	127	885.434367582037	678.003372343455	183.917596325812	1132.37680315381
293.702100886219	141.2442150964	597.196701282194	1444.01986353284	238.541678629033	2058.41067088137	672.660989053491	141	1305.10792572569	1029.0297836624	162.824945695083	1480.50280650615	1100.02245298069	130.101082211157	2495.45055984564	1108.2356476554	151.832660177739	1691.17980411051	653.463729885658	128.143132885243	1189.65267236456	1201.10990983611	170.8861026212	1696.830754681	895.224848235078	141.875545651725	1600.11248563229	1535.34395738833	185.875545651725	2227.40923308511	1322.69587725656	139.292559288608	2390.36437106091	811.321974051735	151	1158.74149799687	636.188317471562	128.713052522677	1427.53063608514	978.033186591371	139.73561138665	1937.86559659407	341.304158905442	127	885.273541951143	677.860055435103	183.898917788843	1131.87800687604
293.659783013246	141.224730527196	597.140130706037	1443.51587461266	238.451581102413	2058.1484560277	672.453250259287	141	1304.77881025173	1028.62508376597	162.799136608139	1480.11282274436	1099.8989359955	130.082403674188	2494.47840489763	1108.21471587601	151.775790663465	1690.49369527999	653.858740445151	128.143560600305	1189.84088763242	1201.13839554962	170.881540282327	1696.21995676037	895.270969851511	141.875138566887	1599.82877882602	1535.48155818054	185.83643363983	2227.03095059958	1322.5211030104	139.309238960207	2389.22051622923	811.037463761452	151	1157.83759315119	635.890596305618	128.648803841306	1426.64126216553	977.730200240878	139.677162557589	1936.80740253624	341.244469088175	127	885.070214005604	677.720361169065	183.8861026212	1131.38832797528
293.615209513782	141.203116249006	597.069476090041	1443.03551599173	238.398840649728	2057.95750135934	672.23573754413	141	1304.43553655485	1028.24681721887	162.783693187146	1479.79350404119	1099.84242682896	130.061156926116	2493.58075641597	1108.25495363705	151.723863483927	1690.03023238445	654.187800913798	128.143560600305	1189.88786993349	1201.18528486202	170.8861026212	1695.80586857732	895.367131230668	141.874352818591	1599.60752236926	1535.77185858989	185.79904869476	2226.87424374954	1322.37968930188	139.330893626635	2388.37990601379	810.840755623625	151	1157.12538048831	635.634175366809	128.575629913695	1425.89052991194	977.50915466609	139.622755080325	1935.94355043978	341.200162649654	127	884.856687829249	677.615649922904	183.881540282327	1130.95871043358
293.579511573105	141.184377527094	597.000117431675	1442.67001112776	238.392523372898	2057.90565649767	672.045913564163	141.001327222897	1304.11513893685	1027.95267591177	162.780370157792	1479.58226563636	1099.85974307443	130.04072345119	2492.80952047319	1108.35575364347	151.685239229338	1689.79798967052	654.431706280611	128.143132885243	1189.77994798813	1201.25094286597	170.898917788843	1695.60599383614	895.504397875242	141.876890030076	1599.4838331426	1536.19569484822	185.768708268562	2226.95651367242	1322.28274001914	139.360121404933	2387.88327217689	810.747863301511	151	1156.6414547369	635.46148802486	128.506600037206	1425.34093888219	977.417891508845	139.584157018181	1935.35114257684	341.183566153833	127	884.661691887954	677.573804188989	183.8861026212	1130.62988767377
293.560377796225	141.172889582347	596.939058788332	1442.48580264614	238.434209158118	2058.02038364072	671.913564154313	141.004650252251	1303.84328513228	1027.78250392725	162.78738680553	1479.48809754468	1099.9512726892	130.023779221956	2492.20980588975	1108.51096024039	151.66656069237	1689.78423550821	654.5795992391	128.143654075904	1189.51525684492	1201.34028747423	170.917596325812	1695.61631615963	895.667875547039	141.883448175406	1599.46454048963	1536.71475970723	185.747098797546	2227.25085671897	1322.24364379884	139.395771695985	2387.72243327289	810.766211388618	151	1156.39555357077	635.39989308386	128.453859584522	1425.02167923734	977.483610773833	139.570040820086	1935.06412568904	341.201837605963	127	884.505686083859	677.611177155548	183.898917788843	1130.42979183371
293.560811073508	141.171710457772	596.888189399947	1442.5169075617	238.517381425147	2058.29209189817	671.855046952272	141.011749802608	1303.63375050941	1027.75319509208	162.801166473127	1479.49403718804	1100.11154030155	130.011749802608	2491.7982634668	1108.71166733487	151.671123031242	1689.94789371427	654.62915098616	128.14660957514	1189.09399288149	1201.46137966404	170.938843073884	1695.80519022666	895.839139837001	141.894267536593	1599.5210177445	1537.27279142126	185.73508436773	2227.6753012211	1322.27142055119	139.436119888913	2387.83386338868	810.892967424443	151	1156.36345306293	635.458011334963	128.42647465756	1424.93176084641	977.706253885229	139.582829795284	1935.07276442486	341.25554724831	127	884.399425188882	677.731265605913	183.917596325812	1130.37215955486
293.580302883622	141.18373987712	596.843164590192	1442.75989702291	238.629501148314	2058.67479290226	671.871523593314	141.023779221956	1303.48451026438	1027.85790133724	162.817470886464	1479.55845073638	1100.33050284857	130.004650252251	2491.57493635302	1108.94964903059	151.698054396982	1690.23691606528	654.587575313579	128.155403878512	1188.52959310978	1201.62795952557	170.95927654881	1696.1279868328	896.000080247687	141.905846523203	1599.60721329511	1537.80683206345	185.730792218287	2228.12194999664	1322.36611569905	139.478581122606	2388.13041564815	811.112426177496	151	1156.49754365041	635.624986534395	128.428208965294	1425.04421799968	978.056697039557	139.619432050971	1935.32229198214	341.338622564971	127	884.343399340898	677.923321057753	183.938843073884	1130.45585008716
293.614852556644	141.207635558389	596.798957455531	1443.1787092459	238.755886245286	2059.11332832505	671.95219309771	141.04072345119	1303.38948120732	1028.07319377784	162.832660177739	1479.63822199246	1100.59646392107	130.001327222897	2491.51021064629	1109.21874699131	151.742542020895	1690.58851057971	654.467783230526	128.17156235945	1187.83708897287	1201.85382639692	170.976220778044	1696.52840811538	896.13382972581	141.915063851928	1599.67067827787	1538.25705396832	185.731577966583	2228.47789491245	1322.51490376426	139.518340191308	2388.50996088031	811.398680133554	151	1156.73155241662	635.874549496767	128.455865690801	1425.3152798695	978.483248530311	139.670063007232	1935.72575845738	341.439442918266	127	884.330767811086	678.165955285765	183.95927654881	1130.66501997776
293.658033587884	141.24088420096	596.754197258078	1443.70832369524	238.881719567835	2059.5597668428	672.076349030214	141.061156926116	1303.34829930485	1028.36259181699	162.844689597087	1479.70392230203	1100.89650329329	130	2491.55992007498	1109.51828310332	151.797037411537	1690.94641770856	654.28941011505	128.196033854103	1187.0417880593	1202.15159720158	170.988250197392	1696.95426888575	896.227726906967	141.91855309762	1599.66643032942	1538.57599983678	185.735067212275	2228.64810876383	1322.69212502812	139.551751575448	2388.87421900791	811.716575892544	151	1156.99204340028	636.170871058214	128.500605406604	1425.69067951927	978.922452459996	139.722254744405	1936.1780943076	341.544157026875	127	884.348403479498	678.431564153295	183.976220778044	1130.97278068866
293.704117682038	141.278420372836	596.712113681318	1444.27400127644	238.994543981551	2059.97943083444	672.222207967857	141.082403674188	1303.36410816764	1028.68853525265	162.853544085403	1479.74521449161	1101.22075937952	130	2491.68432990843	1109.85257409585	151.853093652666	1691.27925096672	654.077690396572	128.228496748377	1186.18198554915	1202.53089700868	170.995349747749	1697.37336821465	896.273031967809	141.915063851928	1599.56909274749	1538.73839587481	185.740009547011	2228.58458925663	1322.86652877827	139.575826354658	2389.14917097441	812.028843744042	151	1157.21337701518	636.475888132547	128.549593027421	1426.11258778227	979.311789171268	139.763786869082	1936.5717788954	341.637598213073	127	884.381126579084	678.691665888654	183.988250197392	1131.3417599241
293.747207528716	141.313783319004	596.679730383416	1444.80225841552	239.084326822837	2060.35712518363	672.369107677706	141.101082211157	1303.4478849338	1029.0166528837	162.860996176346	1479.77545468739	1101.55783656773	130	2491.8633328162	1110.22521014796	151.90331404932	1691.59182487095	653.857913749453	128.266260010622	1185.3126158371	1202.9905801316	170.998672777103	1697.78108790156	896.267235881639	141.905846523203	1599.37734270893	1538.74709546508	185.746663354341	2228.29430418381	1323.0124883739	139.588180789742	2389.30173956795	812.303672833924	151	1157.35240702065	636.757779820627	128.590037069387	1426.5237467511	979.605082928543	139.785033617155	1936.81318057043	341.709706775648	127	884.41311482202	678.923364704929	183.995349747749	1131.72997478928
293.783439195371	141.341168245967	596.665517438536	1445.23531920664	239.143381077583	2060.68903214955	672.502243442325	141.113897378801	1303.608878532	1029.32133858992	162.869790479719	1479.8186054001	1101.89349160974	130	2492.09994128368	1110.63450196818	151.942876493951	1691.92039252025	653.651637301765	128.30456599028	1184.49976152573	1203.51318450812	171	1698.19896841989	896.213403937507	141.894267536593	1599.11097729837	1538.62702497582	185.756590935836	2227.83644691381	1323.11451888377	139.587394971873	2389.34757507656	812.519735431606	151	1157.39825688733	636.994804324806	128.612493806047	1426.88169303079	979.779789362105	139.782613504372	1936.84803250864	341.754732745676	127	884.434525803615	679.112737023558	183.998672777103	1132.10045315966
293.812820634213	141.355484221852	596.676876087924	1445.54291423986	239.166168392201	2060.98298850458	672.615009124476	141.118459717673	1303.85312505899	1029.59043173637	162.881452368949	1479.90498628778	1102.20936883487	130	2492.42196474579	1111.06599832405	151.970243302896	1692.32260929111	653.470026544769	128.338260375878	1183.81384551296	1204.06466424552	171	1698.66443240937	896.120048577235	141.884775398303	1598.81290551043	1538.41843676249	185.771943384538	2227.31267022284	1323.17077532359	139.573713383465	2389.35361675127	812.669451782112	151	1157.37580461743	637.179629850901	128.613611143656	1427.1616715437	979.841417070542	139.760181164076	1936.66239431149	341.774209448794	127	884.441892019007	679.257186831876	184	1132.42572958973
293.835983207093	141.354670948706	596.71621495202	1445.73053799198	239.148799922675	2061.24583186058	672.711116956175	141.113897378801	1304.17242920085	1029.82778633432	162.897590565946	1480.05288939643	1102.48223941704	130	2492.85332082726	1111.49381549636	151.986922974495	1692.84515796032	653.311804934941	128.363196004734	1183.31042902799	1204.59481513517	171	1699.20762240097	896.001211029621	141.881540282327	1598.5255583253	1538.16682711091	185.794486355888	2226.82487460423	1323.19431129211	139.548690044816	2389.4021524203	812.757360584875	151	1157.32590078073	637.318360913447	128.596368422811	1427.36549747324	979.816856048632	139.726141966036	1936.29139550073	341.773680392046	127	884.440213548935	679.363734616887	184	1132.6943058021
293.856439399695	141.338106715335	596.783303749411	1445.8290615828	239.088970219456	2061.49180363962	672.802025841794	141.101082211157	1304.55076512689	1030.04794796841	162.917596325812	1480.27159714514	1102.68815918426	130	2493.41561621613	1111.88394063164	151.995349747749	1693.51664361699	653.16320755194	128.376905117992	1183.02298479317	1205.04863467409	171	1699.84658013619	895.871715528252	141.8861026212	1598.28550886296	1537.90468615343	185.823618472186	2226.45136910977	1323.20007361111	139.514203888808	2389.56177565873	812.794881941127	151	1157.29183301058	637.427599640059	128.566956759346	1427.51857057688	979.747618137115	139.692076921834	1935.80234117008	341.762642880036	127	884.439361860521	679.446728609764	184	1132.91065149219
293.877323307359	141.308347318458	596.875839319264	1445.88601331828	238.990516261648	2061.7445626111	672.904180066103	141.082403674188	1304.96940026925	1030.27271281715	162.938843073884	1480.56312764575	1102.80720054716	130	2494.09606302328	1112.20311533692	151.998672777103	1694.32330140985	653.001831909419	128.379502583993	1182.94953884699	1205.37694829159	171	1700.56866211897	895.746493342183	141.898917788843	1598.10657639568	1537.65214631093	185.858194337653	2226.215295206	1323.20560384231	139.473622068291	2389.84948459229	812.798080295257	151	1157.29514760637	637.527631337769	128.53492361796	1427.65610815675	979.674672008833	139.669795808345	1935.27512097197	341.748588402874	127	884.4467733007	679.521653862622	184.001327222897	1133.08567973012
293.901719627536	141.269207781713	596.990174327671	1445.94921519114	238.861263375233	2062.03278655817	673.035274243531	141.061156926116	1305.41183719482	1030.52538075028	162.95927654881	1480.9262577797	1102.8262059341	130	2494.84901259214	1112.43098230141	152	1695.21519809219	652.806025532696	128.375390677858	1183.05330419609	1205.55075788032	171	1701.33788548954	895.633626054946	141.916269102915	1597.97244435546	1537.40573156954	185.892489880959	2226.07380419432	1323.21752096289	139.43047502955	2390.20344294879	812.778242730919	151	1157.32000834049	637.635377518135	128.508487250436	1427.8133829227	979.626700701449	139.66656069237	1934.7788008437	341.735231760629	127	884.462963608213	679.598521270674	184.004650252251	1133.23174661187
293.930947405835	141.22499034723	597.12549165461	1446.05118950221	238.715867484646	2062.39135117443	673.206238604941	141.04072345119	1305.8710177611	1030.81998543177	162.976220778044	1481.36378375803	1102.75261019435	130	2495.61930056047	1112.57443800776	152	1696.13312674039	652.569079970938	128.368547472765	1183.28426407928	1205.57729999777	171	1702.11666278324	895.534377405758	141.934192821633	1597.83858364875	1537.14508709645	185.922443019025	2225.9256681532	1323.23540479392	139.391363017655	2390.4860733594	812.744370416551	151	1157.31390656255	637.758487488059	128.494570617858	1428.00657664299	979.612043991315	139.685239229338	1934.35357117092	341.72059220595	127	884.474960443232	679.677584760054	184.013077025505	1133.35070939155
