Light	Light	Light	Light	Light	Light	Light	Light	Light	Light	Light	Light	Light	Light	Light	Light	Light	Light	Light	Light	Light	Light	Light	Light	Light	Light	Light	Light	Light	Light	Light	Light	Light	Light	Light	Light	Light	Light	Light	Light	Light	Light	Light	Light	Light	Light	Light	Light
Optode1-730nm	Optode1-Ambient	Optode1-850nm	Optode2-730nm	Optode2-Ambient	Optode2-850nm	Optode3-730nm	Optode3-Ambient	Optode3-850nm	Optode4-730nm	Optode4-Ambient	Optode4-850nm	Optode5-730nm	Optode5-Ambient	Optode5-850nm	Optode6-730nm	Optode6-Ambient	Optode6-850nm	Optode7-730nm	Optode7-Ambient	Optode7-850nm	Optode8-730nm	Optode8-Ambient	Optode8-850nm	Optode9-730nm	Optode9-Ambient	Optode9-850nm	Optode10-730nm	Optode10-Ambient	Optode10-850nm	Optode11-730nm	Optode11-Ambient	Optode11-850nm	Optode12-730nm	Optode12-Ambient	Optode12-850nm	Optode13-730nm	Optode13-Ambient	Optode13-850nm	Optode14-730nm	Optode14-Ambient	Optode14-850nm	Optode15-730nm	Optode15-Ambient	Optode15-850nm	Optode16-730nm	Optode16-Ambient	Optode16-850nm
407.268228055015	142.850439206872	778.668207549692	1296.28172716247	181.739358656296	2012.36314854479	1516.18383029251	143	2606.25591391267	1816.12791268877	158.875545651725	2872.22815159571	1334.74658854836	132.112832013765	2598.00729518594	1266.18691905313	147.998672777103	1975.29225412957	712.119726827488	130	1265.05837110309	889.427747329596	145	1163.28049747133	920.231975356423	143.495521877071	1665.62134463132	618.296250141137	159.561857974243	746.42482755344	1105.50842007821	155.167710273349	1774.24489683903	579.101678136909	147.599426291106	669.627175088117	1198.83110042783	144.342655985039	2293.29080097193	1305.54769037252	136.248502508242	2292.3287703759	948.033504700996	143	2004.94103833517	1079.42237040337	147.886102621199	1718.11063052513
407.016480130975	142.821360807868	777.6723710547	1294.75647735777	181.677706731964	2008.920096957	1515.00585456645	143	2603.35583508826	1814.35649209509	158.83178338758	2867.39524132064	1333.52964483968	132.137676600757	2594.69150245032	1264.42136235939	147.994022524852	1971.79272519374	711.111475780236	130	1262.60418299295	887.878944960475	145	1160.50921603237	919.427123044528	143.501579333867	1663.05816692277	617.142329315568	159.512893555328	744.302929710426	1104.98867318156	155.13740940187	1771.70990850671	578.279080740487	147.586435500291	667.904082808928	1198.29670146648	144.343555133735	2290.1945473476	1304.61890793578	136.277747955369	2288.30875578929	947.412055761544	143	2001.58472747885	1078.45063166869	147.898917788843	1714.21625926464
406.712342214895	142.787298892152	776.43310974694	1292.91875538427	181.607309759448	2004.52945306019	1513.73746018734	143	2599.88247867665	1812.49028425068	158.785971669255	2862.0863579341	1332.10358483106	132.159183168863	2590.28897235482	1262.6669285926	147.982272722244	1967.89317637807	709.979444868848	130	1259.54936055892	886.248069142663	145	1157.30061045559	918.406398290984	143.507279961622	1659.78694232122	615.916372019486	159.4808615046	741.890841223999	1104.12879602154	155.122582951003	1768.25482749915	577.455504701485	147.585925025309	666.06362648551	1197.3181600671	144.346528750989	2285.99063784797	1303.59971849242	136.304478076902	2283.80983898736	946.77081509489	143	1997.99613843397	1077.34257761249	147.916269102915	1709.84207796461
406.365382689932	142.755351626317	774.975615551531	1290.77337505514	181.526238045757	1999.12980103783	1512.4118340996	143	2595.87424752615	1810.59648224007	158.740278794355	2856.40190335421	1330.49204992205	132.175054304917	2584.9033551748	1260.96035963986	147.959820723185	1963.64111350634	708.752256933174	130	1255.96176763069	884.56098209612	145	1153.6826463777	917.229059641559	143.510968772833	1656.00885536751	614.656156042207	159.462364622648	739.259130040563	1102.96161942456	155.118809488912	1764.07692473365	576.671593718194	147.591413136371	664.184937216277	1195.95190373546	144.347054679251	2280.85128588948	1302.54893920362	136.323275457294	2278.94152155096	946.148922086956	143	1994.27452401958	1076.16064337245	147.934192821633	1705.12610517203
405.988921839865	142.731481791209	773.343872705559	1288.35067777291	181.431457288382	1992.72142901737	1511.06347277261	143	2591.41537312336	1808.73774919621	158.695952766645	2850.44726588571	1328.74856647446	132.183485885345	2578.75507592042	1259.34245659914	147.923747524246	1959.11890766715	707.475164672664	130	1251.96910129633	882.857235892543	145	1149.71853832332	915.987666057225	143.511429574965	1652.00566931823	613.41132854569	159.450781036379	736.503252241718	1101.57081909562	155.119874853948	1759.47801117086	575.969533753259	147.594592805004	662.358584006741	1194.31799195346	144.341674447096	2275.07770957471	1301.54468963815	136.329924644488	2273.84618163806	945.58996796611	143	1990.52090213409	1074.98059968662	147.946199523305	1700.2212266851
405.59449702554	142.719301145054	771.596728287238	1285.69727073033	181.321948234397	1985.3800587707	1509.71719566203	143	2586.63783369353	1806.95229622831	158.654798471908	2844.3341254132	1326.95362911513	132.184813108242	2572.17218560707	1257.85971714039	147.874340400738	1954.45824362315	706.208539789563	130	1247.7551601965	881.190216586056	145	1145.51319090924	914.800812246801	143.508495512432	1648.09125272977	612.24330019156	159.438149753901	733.736278047257	1100.08870393533	155.11978694057	1754.81270846433	575.39522551392	147.588732564166	660.675862373579	1192.58073317034	144.327925709545	2269.05355312282	1300.67468327868	136.323275457294	2268.689067471	945.137440243647	143	1986.82778342655	1073.88085489974	147.94646408094	1695.28148611112
405.194712193427	142.721295272823	769.802624619844	1282.87676087222	181.198295180758	1977.26577681545	1508.39411080111	143	2581.72427641689	1805.26118743876	158.619414895517	2838.19188819917	1325.19743363373	132.179704557167	2565.54396696563	1256.5570045331	147.815715948505	1949.83332818341	705.016050409124	130	1243.53782303876	879.61811399057	145	1141.20388057782	913.791310702902	143.503119900413	1644.55462860844	611.218732128185	159.418463369081	731.070223945754	1098.66938572885	155.113897378801	1750.42896512026	574.991199007249	147.570026502348	659.213069255509	1190.91456466103	144.305805299799	2263.19556720203	1300.01422846597	136.304478076902	2263.65449771388	944.823677574814	143	1983.28600987934	1072.92318021578	147.929799468446	1690.45059048897
404.799136608139	142.73667865157	768.031846314791	1279.96320745629	181.063035564298	1968.60317589883	1507.1118752212	143	2576.88446795656	1803.6684792893	158.593118051266	2832.15933322211	1323.56834836562	132.170932971471	2559.26933142358	1255.47537290757	147.755357188539	1945.44469139674	703.956544921752	130	1239.54231133733	878.196027430762	145	1136.94556041588	913.065123367568	143.49555287669	1641.61422486754	610.395930877487	159.387239784325	728.601260685225	1097.46409088904	155.101082211157	1746.61318677195	574.789746100539	147.540100889131	658.023006021823	1189.4712789979	144.277747955369	2257.89345101499	1299.61151839914	136.277747955369	2258.93130415756	944.664859229175	143	1979.98566386022	1072.14288700247	147.892686321921	1685.85533696769
404.415253911699	142.762975495821	766.339588113097	1277.02819660618	180.920564380844	1959.63542206723	1505.8815236368	143	2572.30222447081	1802.16374434436	158.579489610476	2826.34611478213	1322.13581115142	132.161455822713	2553.6772846547	1254.64374256648	147.701289512958	1941.47303940274	703.072542054002	130	1235.95908634126	876.96462215035	145	1132.87984889364	912.686623383092	143.485527012421	1639.37149466421	609.814126651773	159.343190244869	726.389879614376	1096.58437099044	155.082403674188	1743.53173435349	574.802965919285	147.50447464816	657.121654021921	1188.35266122666	144.247175285345	2253.44063118246	1299.47822044026	136.247175285345	2254.68391928888	944.657209354794	143	1977.00034474273	1071.54278495707	147.834039152013	1681.58805599872
404.048717722157	142.796604134255	764.756639217248	1274.13761315688	180.776598374389	1950.58160588491	1504.71194800632	143	2568.09821722593	1800.73390143398	158.581624544297	2820.81500620411	1320.94086716509	132.154882687852	2548.96940777355	1254.07225576032	147.661910440119	1938.04160924646	702.384283914785	130	1232.91185199399	875.944313977598	145	1129.1112541435	912.667631271096	143.472170370176	1637.80151031521	609.481918821785	159.289213541578	724.451256048053	1096.08260664305	155.061156926116	1741.21605402857	575.019023893821	147.47032169058	656.485207520283	1187.59832260249	144.217280602175	2249.98094947178	1299.58213546169	136.217280602175	2251.01016638022	944.775853561058	143	1974.36520363574	1071.09097652081	147.755530911825	1677.68630880824
403.702704649232	142.833629367401	763.288203208049	1271.34262596168	180.636001091516	1941.60795326392	1503.60690661012	143	2564.30696145356	1799.3659687579	158.601272270928	2815.56669086677	1319.99199329375	132.152861104806	2545.19448346497	1253.74996320386	147.641995722118	1935.18468916839	701.887559536127	130	1230.4402036183	875.130701401404	145	1125.68722962861	912.962836987768	143.453502202603	1636.77374858921	609.372891335353	159.228859588786	722.757835216076	1095.94198052112	155.04072345119	1739.57750182105	575.396982917978	147.444803423289	656.05414400053	1187.17975685859	144.19066861148	2247.49726452625	1299.84824508512	136.19066861148	2247.92024146068	944.973450490041	143	1972.06446256885	1070.72335166013	147.660312069993	1674.1263481868
403.379351578382	142.870488314637	761.909684041916	1268.67430831653	180.501408310355	1932.79847945853	1502.56099420841	143	2560.85218152259	1798.04864456142	158.638131218163	2810.51810117931	1319.26189306305	132.15663762581	2542.23741737625	1253.6351679569	147.641454247517	1932.82934259541	701.5530221426	130	1228.48758687803	874.491336159736	145	1122.58623016277	913.482681121671	143.428217365232	1636.07839522188	609.429302847441	159.168667045158	721.240187209729	1096.08614663228	155.023779221956	1738.42823846085	575.874705023566	147.431145727602	655.739262076041	1187.01710574784	144.167697855495	2245.80887743695	1300.17177445272	136.167697855495	2245.31034247038	945.187950089117	143	1970.009985613	1070.3545517586	147.554667519964	1670.81011344739
403.076773666415	142.904519300307	760.573947357338	1266.14557283633	180.373631002299	1924.16660747372	1501.5582658497	143	2557.56698441453	1796.77017640208	158.689539710349	2805.52616623917	1318.6960472833	132.165584884303	2539.84386292658	1253.66066719684	147.655915809517	1930.80103828495	701.332847330221	130	1226.91286139508	873.971035861983	145	1119.72257135133	914.104675963791	143.39521306593	1635.46777291134	609.568968427847	159.113630179914	719.803948215448	1096.39525005255	155.011749802608	1737.52911299945	576.373966080644	147.42795497352	655.437761338735	1186.99237346972	144.14688919188	2244.605502363	1300.42849351433	136.14688919188	2242.96814509029	945.342857409673	143	1968.03970309334	1069.88284082728	147.445332480036	1667.56994214814
402.790342304766	142.932865598736	759.222872867306	1263.75136610899	180.248774306787	1915.67824393005	1500.5703940839	143	2554.22267983023	1795.51494743404	158.749379713391	2800.41021814219	1318.21399479456	132.178400051946	2537.65257163993	1253.73035950639	147.676472984667	1928.83728150661	701.162312851278	130	1225.50566701123	873.493114868569	144.998672777103	1116.95295880192	914.692431078587	143.356267270374	1634.68237808716	609.697280871462	159.0678257025	718.337417989269	1096.72756932509	155.004650252251	1736.61250881592	576.81003986828	147.431716017757	655.040122667326	1186.96906968611	144.126974404306	2243.50053273026	1300.49129540897	136.126974404306	2240.60763519699	945.354499142736	143	1965.934616326	1069.20222445312	147.339687930007	1664.19088458589
402.511424012744	142.953299073663	757.7884467192	1261.47570110949	180.120188463186	1907.26681939131	1499.55592095485	143	2550.54563492492	1794.25821581947	158.808411250461	2794.96410085627	1317.7162669638	132.191366446397	2535.23363100749	1253.7246215129	147.691805774605	1926.61533974164	700.966177614741	130	1224.00729675627	872.965975374343	144.994022524852	1114.09237309354	915.107049348002	143.312992763535	1633.46803027564	609.716366113328	159.032205995211	716.724586757266	1096.93602184473	155.001327222897	1735.4052247138	577.099019814633	147.436102733458	654.442115532699	1186.81046119109	144.105732463407	2242.07528127194	1300.24557901074	136.105732463407	2237.90379718843	945.140010454539	142.998672777103	1963.43723004079	1068.21194857622	147.244469088175	1660.42938473805
402.226915533705	142.964470975436	756.202887782486	1259.29645797084	179.981067471257	1898.86571155595	1498.46219747218	143	2546.25432578702	1792.96458863771	158.857940345879	2788.98552002354	1317.088593346	132.200951305239	2532.1352528864	1253.50616753589	147.691028238679	1923.79036652953	700.659077412927	130	1222.13689119192	872.286221621888	144.982272722244	1110.93653834588	915.219022555775	143.269583039975	1631.57182909215	609.535603609433	159.003323029354	714.85171513926	1096.88684156421	155	1733.62857146864	577.162738377423	147.433678852801	653.54587367746	1186.39216934043	144.083730897085	2239.92245832629	1299.59981367741	136.083730897085	2234.54055227317	944.623356255416	142.994022524852	1960.27986396621	1066.82592813767	147.16463362509	1656.0443150865
401.920104882243	142.964470975436	754.40088759353	1257.18789151844	179.823616572302	1890.42479626143	1497.22518285099	143	2541.08716353029	1791.58401035732	158.886891276785	2782.29591919695	1316.21235900328	132.20349164521	2527.91850276736	1252.93414941221	147.666463268427	1920.02496555237	700.153783302469	130	1219.61391243419	871.35040913398	144.958493500288	1107.27906575568	914.908692193733	143.229823971274	1628.73741270523	609.075606834378	158.976220778044	712.610911344683	1096.45965832413	155	1731.00085438409	576.932359843312	147.419702678599	652.26296398265	1185.61387500669	144.061156926116	2236.67192013075	1298.4939705946	136.061156926116	2230.23952221101	943.741906376095	142.983599945141	1956.20300767574	1064.98106917318	147.102663425828	1650.81407116666
401.571917255136	142.954626296559	752.323277802884	1255.11930033217	179.643370540533	1881.91478819867	1495.76734035996	143	2534.81447042267	1790.0462134902	158.889340574892	2774.73983075529	1314.96814752137	132.196301052989	2522.19870664013	1251.87323007446	147.615570454306	1915.0263798732	699.36044063238	130	1216.18138043473	870.059003830993	144.916442826201	1102.93557934433	914.075130281009	143.196033854103	1624.70514104082	608.273616461019	158.942876493951	709.904763854354	1095.55971969974	155	1727.24232257755	576.349706333145	147.391536740942	650.512967293377	1184.40242415018	144.04072345119	2232.00675061988	1296.90083340982	136.04072345119	2224.77888113509	942.452295371951	142.963143752539	1950.9778599674	1062.6403120002	147.058450728946	1644.55563995379
401.158259931143	142.937515850987	749.918115325458	1253.05472031151	179.438294980878	1873.3324115351	1493.99676648164	143	2527.25315266982	1788.25791233412	158.862665067182	2766.19406518824	1313.24574558941	132.179616643789	2514.67241264693	1250.20479964271	147.540175358184	1908.57128733513	698.197753475305	130	1211.62575255784	868.328027954074	144.850635647834	1097.7601154313	912.635497997385	143.170235136553	1619.21894880892	607.084137761702	158.897336574172	706.65399069646	1094.11621715347	154.998672777103	1722.08988239306	575.369486868899	147.350375274869	648.22760194808	1182.71085914027	144.023779221956	2225.68018298393	1294.81863465759	136.022451999059	2218.0129236477	940.729418046407	142.929519851706	1944.42723572928	1059.79213593208	147.029756697104	1637.14460428062
400.657108450279	142.917596325812	747.145579263356	1250.95694138535	179.210329337707	1864.7000503524	1491.81744970571	143	2518.27934742556	1786.1150476281	158.808955424836	2756.57179219322	1310.95821305327	132.15462082999	2505.14516250487	1247.84516058182	147.447519920282	1900.52820420989	696.600100506213	130	1205.79463291341	866.101411392625	144.756482171038	1091.66743956715	910.536376107333	143.150753626262	1612.0611563135	605.484123410931	158.83536637491	702.809659765295	1092.08826977186	154.995349747749	1715.33251529096	573.967006277381	147.299508653192	645.363254054137	1180.5192118548	144.011749802608	2217.53612871164	1292.27029812047	136.007099550357	2209.89175785522	938.571810180171	142.880392344938	1936.45466991487	1056.4540512047	147.013077025505	1628.53947787558
400.050089648427	142.898917788843	743.982427694415	1248.79886473646	178.963143752539	1856.07189303157	1489.14271586655	143	2507.83531692854	1783.51559825401	158.731629717959	2745.82944037996	1308.05190428207	132.12618865601	2493.54337023498	1244.75332107075	147.34528944147	1890.8683568171	694.530073226197	130	1198.61614061178	863.362321719441	144.631620737925	1084.64751490578	907.757485305916	143.134859772532	1603.10186808944	603.478746053702	158.755530911825	698.37115984156	1089.46653227432	154.986922974495	1706.85894320708	572.141128399204	147.244119316935	641.916694267824	1177.84016917013	144.004650252251	2207.54750298695	1289.31031677872	135.992900449643	2200.49529431766	936.008246088969	142.814932899984	1927.08420453124	1052.68105932146	147.003323029354	1618.81470929455
399.32817021958	142.8861026212	740.432727591053	1246.57626054578	178.704117682038	1847.54949557548	1485.91651667466	143	2495.95303978119	1780.38714276717	158.636983280774	2733.99055983289	1304.53029749219	132.100130951944	2479.9660493795	1240.95224686936	147.241936614291	1879.69685501044	691.994919705486	130	1190.12772385039	860.151710727606	144.478327130832	1076.79203479798	904.331556427753	143.119874853948	1592.36285818097	601.112535276243	158.660312069993	693.41030026274	1086.29124987521	154.970243302896	1696.71305443936	569.928234917976	147.190149854555	637.945183884791	1174.72420245845	144.001327222897	2195.84364505075	1286.02521938204	135.977548000941	2190.05145098199	933.103237965037	142.734284163753	1916.48779733298	1048.56982313052	146.996676970646	1608.18670636809
398.499183597481	142.881540282327	736.540310953624	1244.32827955852	178.440770141163	1839.29845876032	1482.1451703762	143	2482.78687361034	1776.72265656954	158.530102549712	2721.18326296444	1300.46730732464	132.082207233226	2464.6982982548	1236.53703031361	147.144343648827	1867.25803036054	689.054892258222	130	1180.49778065767	856.577326120622	144.302033516396	1068.3063283998	900.356310822352	143.102409434054	1580.07911294616	598.477752604594	158.554667519964	688.08631364856	1082.66032760048	154.941549271054	1685.14762977339	567.406820775895	147.141261487972	633.580954306945	1171.26454011204	144	2182.73379432275	1282.53510103326	135.95927654881	2178.9411016519	929.958493430695	142.641633533025	1904.99591526178	1044.26197429644	146.988250197392	1597.01543487063
397.588370375073	142.886102621199	732.404807171104	1242.14077592224	178.184639384955	1831.57374115584	1477.90956128038	143	2468.65481815918	1772.59320457333	158.416990919207	2707.685446535	1296.02035082145	132.078906921548	2448.25869652443	1231.68316010702	147.058450728946	1853.96574554928	685.831855086365	130	1170.04879909259	852.819657384465	144.114159236662	1059.52294495585	896.004068253276	143.082403674188	1566.72905456129	595.72007719649	158.445332480036	682.653215003828	1078.74349466754	154.898663797069	1672.65000802383	564.703277260494	147.100130951944	629.0340761842	1167.60009034014	144	2168.70149244498	1278.99291971459	135.937515850987	2167.67094590644	926.714191207907	142.54185235232	1893.08722017229	1039.94082474915	146.976220778044	1585.78750044369
396.639534761205	142.898917788843	728.180084885422	1240.14763991933	177.946401763703	1824.70251194947	1473.37440040164	143	2454.03584676677	1768.16116338141	158.303526817689	2693.92298905618	1291.4298190331	132.092932147353	2431.39026681799	1226.64212517072	146.988076474105	1840.39320621589	682.503860951946	130	1159.25184885055	849.121715383526	143.928674485947	1050.88424638296	891.520347413066	143.061156926116	1553.0342084091	593.03163497515	158.339687930007	677.447002056986	1074.78286529153	154.841343850058	1659.93418752553	561.986717008263	147.067134401264	624.583969582655	1163.9099228415	144	2154.37756054343	1275.57184992402	135.912946073561	2156.82151861993	923.537449356723	142.440770141163	1881.34585991927	1035.8162909907	146.95927654881	1575.06402405142
395.709146222639	142.917596325812	724.07165961189	1238.51429432927	177.738071291366	1819.06115984521	1468.77717187184	143	2439.55431241254	1763.66301263518	158.196127329702	2680.45870674098	1286.99837503457	132.125379982522	2415.0171415154	1221.71703069239	146.935774036304	1827.23547781523	679.289808035002	130	1148.69928503438	845.76462700528	143.7610674648	1042.90607324283	887.202566460325	143.04072345119	1539.88363766298	590.632433413209	158.245796311072	672.845489681389	1071.07274426539	154.773258189581	1647.86435351755	559.452244502667	147.042050674087	620.543067662944	1160.39665660742	144	2140.48182069522	1272.44921902316	135.885840763338	2146.9846422871	920.605867818256	142.344250268879	1870.40246006251	1032.10409002601	146.938843073884	1565.42190841782
394.860808887248	142.938843073884	720.319858045404	1237.40925579772	177.570484066925	1815.03245104075	1464.40051189788	143	2425.94925100059	1759.38171369287	158.10090848787	2667.96065992542	1283.06049232692	132.171990074511	2400.15417679841	1217.23721578871	146.902502676058	1815.23907538936	676.426854810608	130	1139.04250138789	843.032843315897	143.625663517893	1036.11470848503	883.362663706605	143.025106444853	1528.22227629432	588.73724281883	158.170611100238	669.214475067498	1067.92305286449	154.701818569705	1637.34494587592	557.292214862201	147.023779221956	617.215425732626	1157.26302415884	144	2127.74172712536	1269.78182547243	135.857673146993	2138.68677825331	918.086025798845	142.257284255818	1860.86109353682	1028.99759198739	146.917596325812	1557.37910829829
394.15477010502	142.95927654881	717.170293804084	1236.97663994581	177.451936435873	1812.93398957373	1460.53686273846	143	2413.98951561508	1755.60784737473	158.022827962743	2657.11880875327	1279.93546641697	132.225536559432	2387.78685783881	1213.51568713222	146.887517757474	1805.12228083012	674.136290654072	130	1130.91571756205	841.169372598291	143.533012887165	1030.97307008232	880.282326676628	143.017727277756	1518.91280498181	587.519453463816	158.120390703584	666.848317660728	1065.61220325204	154.636897470866	1629.19123508699	555.668233269318	147.011749802608	614.850526004869	1154.68861300032	144	2116.80998211208	1267.68994583028	135.829067028529	2132.32454674904	916.114362712215	142.183312162058	1853.22900138166	1026.64456074775	146.898917788843	1551.32892805538
393.639325090062	142.976220778044	714.834550094475	1237.29505904234	177.38690470598	1812.94420518569	1457.43481208379	143	2404.36235231869	1752.58098713398	157.964986825071	2648.53382110283	1277.869728254	132.276136516073	2378.72469922061	1210.79829289815	146.887429844096	1797.46910015867	672.588378431188	130	1124.84270265815	840.327915797879	143.487986917137	1027.80388986687	878.162657325945	143.022377530006	1512.59355235604	587.077015221975	158.099957228657	665.912226297837	1064.33420851611	154.588719357054	1623.99156711177	554.681503143021	147.004650252251	613.599925814632	1152.80330685239	144	2108.17857233795	1266.24493922876	135.801166473127	2128.11878106822	914.777989411624	142.1239101739	1847.84792408811	1025.13039335475	146.8861026212	1547.49067074845
393.34265945754	142.988250197392	713.459947817207	1238.35706426226	177.375154903372	1815.06151062782	1455.26315218061	143	2397.59005877746	1750.45554705505	157.928241208664	2642.64068689349	1276.9928809436	132.314760770662	2373.46349287896	1209.225558238	146.898917788843	1792.63247002511	671.873008323481	130	1121.15270408981	840.54337250966	143.489052282172	1026.72966853663	877.087631115435	143.042833722609	1509.55523558972	587.407982473074	158.111986648005	666.40212860444	1064.15783850262	154.565478481213	1621.99279073435	554.35258646397	147.001327222897	613.487964647894	1151.67074002557	143.998672777103	2102.11715112707	1265.45869911025	135.774463440568	2126.09035048308	914.103230006022	142.078884203872	1844.85530780727	1024.46445815873	146.881540282327	1545.88349072045
393.268405847155	142.995349747749	713.098009723293	1240.05974558022	177.410429936162	1819.07056924938	1454.08170782662	143	2393.93367862031	1749.27157286843	157.911209066053	2639.62083007382	1277.28393440031	132.33343930763	2372.09506664779	1208.79982808638	146.917596325812	1790.67728126717	671.980776776775	130	1119.92490909811	841.713219116564	143.528889653835	1027.64285127546	877.006901228358	143.080902728005	1509.69463318649	588.407070069008	158.155136679626	668.141338215802	1065.00655831275	154.571341850538	1623.05364014465	554.618302389319	147	614.40302065505	1151.27170790075	143.995349747749	2098.62711925058	1265.28128058601	135.750706936288	2126.04512223046	914.049132348349	142.048028149234	1844.15247561747	1024.57619256635	146.8861026212	1546.31383389482
393.393519268426	142.998672777103	713.691808160255	1242.20466447812	177.482276640875	1824.54572848516	1453.8220905907	143	2393.33242557975	1748.93875443545	157.910667591451	2639.3505490627	1278.56220535985	132.328876968758	2374.25806841465	1209.37481293726	146.938843073884	1791.34992135909	672.796601375787	130	1120.96147153668	843.606065602255	143.596174019676	1030.20984653491	877.744626278779	143.13740940187	1512.51563803758	589.879891905012	158.224463328309	670.795431465139	1066.66746007587	154.604076543357	1626.64636888518	555.343433519941	147	616.110986927181	1151.51088635235	143.988250197392	2097.45147700541	1265.60818018733	135.730792218287	2127.60916385508	914.514733438907	142.029756697104	1845.42364222582	1025.32672237288	146.898917788843	1548.40533523164
393.673785314298	143	715.074086664507	1244.53353375288	177.576957136592	1830.8820960803	1454.31040289783	143	2395.38177496672	1749.26560319172	157.922246578062	2641.38996585741	1280.51105255994	132.301945603018	2379.17281363008	1210.67370303364	146.95927654881	1794.10412630752	674.118957707744	130	1123.80807331146	845.894045411241	143.678039347749	1033.91344751034	879.027784215698	143.208063273451	1517.20589282112	591.573688498966	158.310472707504	673.926198406506	1068.82219520293	154.657243032414	1631.92968514416	556.343290905514	147	618.288300250618	1152.22277997421	143.976220778044	2098.10617385299	1266.29063203592	135.715955398024	2130.2702757364	915.349060047189	142.023499605216	1848.1727620883	1026.52099837032	146.917596325812	1551.64416120315
394.048811197756	143	716.990729791008	1246.75769331736	177.679104712785	1837.36210446337	1455.29139447063	143	2399.38320902787	1749.98892140394	157.940170296781	2645.03849324681	1282.72942799187	132.257457979105	2385.73192077217	1212.33336926354	146.976220778044	1798.16430764314	675.688678939223	130	1127.81185533249	848.204186708589	143.760181164076	1038.11860539738	880.532272349398	143.285366262651	1522.76220899305	593.216285321607	158.399263641452	677.0499878399	1071.09466479327	154.719828163975	1637.86940808565	557.414215827643	147	620.565754150978	1153.20330203055	143.95927654881	2099.94677061898	1267.15851869064	135.707702569253	2133.43728216413	916.379857281646	142.028429474207	1851.78853865486	1027.94136006037	146.938843073884	1555.44067801043
394.453858335953	143	719.133508589657	1248.60119192005	177.774209448794	1843.23168516675	1456.47183516543	143	2404.42611884496	1750.81975879757	157.95927654881	2649.4155618046	1284.79104127804	132.202962588463	2392.6662927102	1213.95888260912	146.988250197392	1802.63899592125	677.228529803187	130	1132.21451013604	850.174462510348	143.832043345556	1042.16403941631	881.934997844783	143.358540190262	1528.14788492325	594.555655143403	158.476999907935	679.712347510444	1073.11059244759	154.780186923941	1643.39743782443	558.364290441193	147	622.582903308116	1154.23582779105	143.938843073884	2102.26075756456	1268.04144622438	135.706224119549	2136.5130837572	917.435540007969	142.042050674087	1855.6285240497	1029.37315692443	146.95927654881	1559.20823293552
394.825706588605	143	721.182245958235	1249.83979324904	177.850635647835	1847.78530075983	1457.56919981865	143	2409.50970855745	1751.49343159656	157.976220778044	2653.57296415567	1286.31170223047	132.146906347334	2398.72181691092	1215.18610382129	146.995349747749	1806.64462397486	678.481892945562	130	1136.25526368306	851.505943963527	143.885586771564	1045.44769109932	882.960231383621	143.415842981819	1532.44429523986	595.394542844716	158.529740360619	681.546909434782	1074.55151530771	154.8276394744	1647.57049698247	559.037653162506	147	624.037289109154	1155.12589692213	143.917596325812	2104.36311100646	1268.79194857565	135.711994768321	2138.96930070463	918.373369823354	142.061156926116	1859.10594700397	1030.63732649709	146.976220778044	1562.43662229095
395.114579903719	143	722.852207958148	1250.33209777121	177.900042771343	1850.46415923922	1458.35560061301	143	2413.69812722178	1751.81155211372	157.986922974495	2656.64196380232	1287.00625186725	132.09668595068	2402.84309561413	1215.73612714287	146.998672777103	1809.42709773044	679.249585038586	130	1139.27733130761	852.005104640648	143.917770049098	1047.50421079375	883.414753593525	143.447336686431	1534.97078206423	595.61108971601	158.548418897587	682.317858464537	1075.19662295331	154.855285900085	1649.69926629416	559.333287919544	147	624.721237814939	1155.72567638426	143.897590565946	2105.6852785258	1269.30255722151	135.722274403168	2140.40700563853	919.094338155223	142.082403674188	1861.76264626188	1031.61046598194	146.986922974495	1564.75544663267
395.288398027603	143	723.934258179394	1250.03291570337	177.916987000576	1850.92692839611	1458.68368684193	143	2416.25679948946	1751.66079099973	157.990699495499	2657.95639160964	1286.72630826877	132.058450728946	2404.3209783388	1215.45687881747	147	1810.47033579295	679.411019672493	130	1140.81051783655	851.603484825643	143.929519851706	1048.0584105371	883.20707665639	143.447336686431	1535.35638209196	595.16951952878	158.529740360619	681.93785047163	1074.94847655676	154.859689771241	1649.42419786224	559.211180865743	147	624.539634197707	1155.95005359588	143.881452368949	2105.85012777189	1269.51912832596	135.734546021615	2140.60985282387	919.554612454781	142.101082211157	1863.3299640426	1032.23833204707	146.990699495499	1565.97874836431
395.335007912076	143	724.317641209591	1249.00430417731	177.900042771343	1849.10165717554	1458.50719620653	143	2416.75448502697	1751.02985463066	157.986922974495	2657.14512916533	1285.46368391548	132.034406949354	2402.87457125183	1214.33162456674	147	1809.55619161406	678.934082122544	130	1140.62666917644	850.354336179219	143.924438825482	1047.04872016477	882.348886405345	143.415842981819	1533.55803978731	594.118370077539	158.476999907935	680.466499618784	1073.83557054784	154.841011234273	1646.74234453109	558.691337004069	147	623.515980254857	1155.77927694523	143.869790479719	2104.72113043522	1269.43780022751	135.744130880457	2139.58049829519	919.75852864707	142.1138973788	1863.7568689322	1032.53157774062	146.986922974495	1566.12745818543
395.265061593494	143	724.0029942534	1247.39829444511	177.850635647835	1845.20138119315	1457.87271851346	143	2415.11956041056	1749.99629917124	157.976220778044	2654.1850149104	1283.35143832511	132.024826828113	2398.67220103633	1212.48214855038	147	1806.7805720119	677.875789260889	130	1138.75413266841	848.420774346465	143.90829582131	1044.62176017331	880.94204062515	143.358540190262	1529.8333568461	592.576747748481	158.399263641452	678.089158506303	1071.99709105621	154.803872670298	1641.97786949487	557.844592073435	147	621.780986877098	1155.26050332628	143.862323399243	2102.41477255369	1269.11382734054	135.748693219329	2137.54547167927	919.757535097419	142.118459717673	1863.206986735	1032.56323825083	146.976220778044	1565.41443846266
395.107404054017	143	723.095061356701	1245.44326686322	177.772882225897	1839.70075385484	1456.90999442206	143.001327222897	2411.63905002317	1748.71584931305	157.95927654881	2649.39966678919	1280.62816768525	132.029756697104	2392.27591603517	1210.1384935043	147	1802.51703049646	676.367663657671	130	1135.45939273922	846.042728554066	143.885840763338	1041.10073098357	879.152761428912	143.285366262651	1524.67520610923	590.71640780334	158.309145484607	675.084278932531	1069.65281956148	154.754553460168	1635.70986935423	556.77663618792	147	619.547626410362	1154.49240899722	143.858194337653	2099.27117467906	1268.643649525	135.747361189258	2134.91735144909	919.631501844876	142.1138973788	1862.01298801438	1032.4454959035	146.95927654881	1564.19812854902
394.903453935271	143	721.784998525613	1243.40609275127	177.673127237637	1833.2846829265	1455.80296931259	143.004650252251	2406.91522694454	1747.38829043699	157.938843073884	2643.4201846975	1277.60460475281	132.046700926337	2384.55605891531	1207.60423590316	147	1797.35970955689	674.597548132669	130	1131.20331324304	843.505565154809	143.862323399243	1036.94228272751	877.192615321492	143.208063273451	1518.74062590347	588.741075104418	158.219813076059	671.791340011539	1067.07739071979	154.701818569705	1628.69233210717	555.618289913017	147	617.086626127542	1153.61984417666	143.856439399695	2095.78372895258	1268.16312487178	135.742280163034	2132.21420828905	919.480212042022	142.101082211157	1860.59966028878	1032.31384535777	146.938843073884	1562.9042591236
394.699811234824	142.998672777103	720.31041907975	1241.55424567561	177.559229858837	1826.73592338237	1454.75067724188	143.011749802608	2401.73027783502	1746.22097091097	157.917596325812	2637.05439936121	1274.62134807429	132.072906728724	2376.52955167125	1205.2111522765	147	1792.00882136881	672.783910075596	130	1126.5612806077	841.104986062241	143.840816831137	1032.66790000539	875.290494968155	143.138736624767	1512.75930342804	586.865857682965	158.142059654121	668.570904279379	1064.56491743161	154.654274977382	1621.74761876385	554.510011079648	147	614.69110762298	1152.81126437576	143.856439399695	2092.52251124618	1267.82471844195	135.737891768644	2129.9838229074	919.404570964692	142.082403674188	1859.40598915941	1032.30305672482	146.917596325812	1561.95016547884
394.54125563731	142.994022524852	718.927230242304	1240.12192270606	177.44209736406	1820.85348003771	1453.94201863133	143.023779221956	2396.95397283375	1745.40177561489	157.898917788843	2631.20099387717	1272.00777387426	132.106182896144	2369.23285436739	1203.27293232902	147	1787.17346571068	671.149208965845	130	1122.15199182223	839.115360579489	143.824945695083	1028.8084834571	873.669719945634	143.085552980255	1507.45085300839	585.294942082945	158.082229950902	665.769366082992	1062.39798673804	154.620213061666	1615.66904894272	553.587609167159	147	612.642689598839	1152.23821040219	143.858194337653	2090.02706389224	1267.77604175229	135.738407397084	2128.69414554343	919.493394965784	142.061156926116	1858.79854416113	1032.52564114091	146.898917788843	1561.66483315061
394.463205761589	142.983599945141	717.862569910113	1239.27920883495	177.332850237511	1816.32463828434	1453.52379584698	143.04072345119	2393.3805152022	1745.07054927181	157.8861026212	2626.68651710831	1270.04680823752	132.141805662347	2363.57227111017	1202.04989229826	147	1783.47300856059	669.89455480203	130	1118.54749142915	837.763178695538	143.816514114655	1025.83513483087	872.530159854701	143.054583525217	1503.45114752305	584.20284037073	158.042833722609	663.687777426137	1060.82644790203	154.605403766254	1611.13765769865	552.974355001441	147.001327222897	611.185050364685	1152.05540071506	143.862323399243	2088.73389244136	1268.14023096968	135.748426020443	2128.6627478543	919.812163629994	142.04072345119	1859.015953768	1033.05576172744	146.8861026212	1562.24002397363
394.487657401013	142.963143752539	717.289161405192	1239.11515330305	177.243517828962	1813.64723034	1453.58279054494	143.061156926116	2391.61888921944	1745.30053252652	157.881540282327	2624.15460532462	1268.94515727205	132.175054304917	2360.22707656223	1201.71303914419	147	1781.36245581688	669.17664421685	130	1116.21358971644	837.206332976315	143.816514114655	1024.11035996123	872.027222793083	143.046156751962	1501.25788717086	583.717519734618	158.022377530006	662.553698592439	1060.03637933998	154.613022073536	1608.66083091931	552.76465219405	147.004650252251	610.497905939754	1152.37756127424	143.869790479719	2088.93102937011	1268.99573453557	135.768708268562	2130.03647120846	920.393955360356	142.023779221956	1860.15791798927	1033.92291286483	146.881540282327	1563.7275437618
394.623849134043	142.930847074603	717.30329766901	1239.64131619037	177.18489337673	1813.08166948949	1454.15015964601	143.082403674188	2392.02722923408	1746.10868717601	157.8861026212	2623.99384794594	1268.81816933159	132.200863391861	2359.58695606269	1202.33517169339	147	1781.08627590356	669.095272893249	130	1115.4570969879	837.522790081465	143.824945695083	1023.85149905087	872.255102626346	143.058450728946	1501.18914131165	583.904422124916	158.019054500653	662.503351975356	1060.13221501399	154.642781470414	1608.53048330831	553.014209549359	147.011749802608	610.684382011233	1153.26510164912	143.881452368949	2090.721070316	1270.3657358901	135.79904869476	2132.77284407979	921.238584399078	142.011749802608	1862.18007213304	1035.11243476752	146.8861026212	1566.04641732375
394.868414605106	142.886369820086	717.923153749198	1240.80569836597	177.164459901803	1814.64577923736	1455.2084509228	143.101082211157	2394.68569012121	1747.46523029473	157.898917788843	2626.30308440288	1269.69101478262	132.214979589957	2361.74331616711	1203.89409441122	147	1782.68034235454	669.685901136225	130	1116.40691781483	838.712203213695	143.842144054034	1025.11551760549	873.240433714771	143.086263370969	1503.36582445863	584.763740368071	158.031083920001	663.573143624165	1061.12946502865	154.690866933246	1610.81672765929	553.735407348614	147.025106444853	611.764958759112	1154.71543966127	143.897590565946	2094.05413855046	1272.21178142414	135.83643363983	2136.69609646975	922.31314994142	142.004650252251	1864.94743753346	1036.56956156204	146.898917788843	1569.03693971696
395.209873601153	142.832660177739	719.093256023033	1242.51529236599	177.186220599627	1818.146519459	1456.70597029566	143.1138973788	2399.41269759435	1749.30674281621	157.918923548709	2630.90086767348	1271.49622929017	132.214979589957	2366.51824191174	1206.27794788157	147	1785.99472689031	670.918357249718	130	1119.0199598416	840.696752952214	143.868300874391	1027.80977105859	874.935379264079	143.123127125378	1507.7278204799	586.229564470732	158.058450728946	665.706479592818	1062.94981127454	154.749379713391	1615.39263730913	554.894321452917	147.045373703441	613.687088599899	1156.66528711437	143.917596325812	2098.74719384549	1274.44533444542	135.876872874622	2141.53874736845	923.560315700184	142.001327222897	1868.26646704834	1038.21765798683	146.917596325812	1572.50260627288
395.630672578374	142.775790663465	720.708187687865	1244.66030966045	177.24949530411	1823.25404400904	1458.57378807671	143.118459717673	2405.83706187114	1751.55826267972	157.944820549031	2637.39592515537	1274.09400109957	132.200863391861	2373.50794345473	1209.30743387841	147	1790.72851007584	672.705848943565	130	1123.09782300265	843.337611908516	143.904895263991	1031.71373151445	877.23054609251	143.162239137273	1514.0317685798	588.184351929978	158.102663425828	668.758644952247	1065.44292365044	154.809738473358	1621.94507559388	556.417902915782	147.072906728724	616.329041410064	1159.0029560761	143.938843073884	2104.53898542422	1276.93859843756	135.915063851928	2147.00976887479	924.906862174689	142	1871.94166140828	1039.96709346656	146.938843073884	1576.26087780148
396.113034254162	142.723863483927	722.632465922193	1247.13864578849	177.350577515266	1829.56762664072	1460.7418451005	143.1138973788	2413.46690369225	1754.1486156804	157.975676603669	2645.26029666161	1277.29021160608	132.175054304917	2382.16902969006	1212.76162328152	147	1796.49839120302	674.917966847785	130	1128.33373204516	846.451299706299	143.953125350376	1036.52216744058	879.963856163648	143.196301052989	1521.88363523973	590.472007649846	158.16463362509	672.518194929145	1068.39981901116	154.86259059813	1630.01350073378	558.202239386985	147.106182896144	619.514213068083	1161.57862758188	143.95927654881	2111.11591824477	1279.53990280369	135.947526746202	2152.81835162145	926.270655731491	142	1875.78813299021	1041.72599833175	146.95927654881	1580.15459842183
396.634784499673	142.685239229338	724.72394286837	1249.85143301414	177.483603863772	1836.67709352617	1463.1258104373	143.101082211157	2421.7696872296	1756.99191253059	158.011749802608	2653.91401055145	1280.84992889639	132.141805662347	2391.85581851143	1216.39750846628	147	1802.87115956958	677.390717458558	130	1134.34043938158	849.824644503699	144.013768326741	1041.88023826176	882.939359319428	143.220869151727	1530.76047606062	592.918561359616	158.244469088175	676.722321447081	1071.58113148984	154.89996830229	1639.02317890352	560.123796463986	147.141805662347	623.024287377076	1164.22748324289	143.976220778044	2118.14843842243	1282.09546788013	135.971570525793	2158.70636175565	927.572499686036	142	1879.6504533322	1043.41163952304	146.976220778044	1584.06128479098
397.173656324096	142.66656069237	726.842523322702	1252.70519657258	177.641459809738	1844.1823458078	1465.63256491946	143.082403674188	2430.21825693039	1759.99381029948	158.054080093435	2662.77750579577	1284.51377703577	132.106182896144	2401.8787385563	1219.97038310074	147.001327222897	1809.40354605509	679.944252368564	130	1140.68726210658	853.231332683834	144.084936148072	1047.4198081522	885.942338048126	143.232445009852	1540.04660262954	595.34715696226	158.33836070711	681.081024204296	1074.73785439631	154.919097271995	1648.32578806602	562.049072955907	147.175054304917	626.61643207592	1166.78069292609	143.988250197392	2125.29035345243	1284.46045561582	135.986922974495	2164.43449479478	928.737546842812	142	1883.38301607623	1044.94750559149	146.988250197392	1587.87005173416
397.699404716202	142.671123031242	728.855702770885	1255.5847253007	177.816514114655	1851.69727833845	1468.13978303249	143.062484149013	2438.32369348534	1763.02223244583	158.103207600203	2671.31303618464	1288.01922076281	132.072906728724	2411.5412326215	1223.25278494056	147.005977475148	1815.66533583992	682.396874595345	130	1146.93146683548	856.451497261714	144.160504829538	1052.78787656921	888.756899242816	143.232618954335	1549.07145328403	597.591861632549	158.440682227785	685.297334558976	1077.63043364014	154.921115796128	1657.23966284845	563.845218533324	147.202190614758	630.037872201905	1169.08721224889	143.995349747749	2132.18704424567	1286.51479952072	135.995349747749	2169.77422753617	929.70489988468	142	1886.83965941805	1046.27094124357	146.995349747749	1591.46298796485
398.177383338627	142.698054396982	730.638449380143	1258.34063185711	178	1858.83769932255	1470.49517457921	143.045373703441	2445.6542340152	1765.9031954491	158.159960655163	2679.04663944301	1291.11213332151	132.045373703441	2420.18267661387	1226.04924067859	147.017727277756	1821.26132770201	684.577437129032	130	1152.6483638138	859.286511624555	144.232893008853	1057.67432686459	891.182821515898	143.226057750093	1557.16343519199	599.511252258667	158.542917717356	689.092803571872	1080.05057321637	154.911618850664	1665.10797746195	565.392388555817	147.220957065105	633.047103052082	1171.01992414627	143.998672777103	2138.47795595281	1288.16735168426	135.998672777103	2174.49265646036	930.425469926752	142	1889.85668086072	1047.33018566802	146.998672777103	1594.70133415437
398.566810770713	142.742542020895	732.070130042127	1260.7877491522	178.183485885345	1865.21490528062	1472.52372726817	143.035529024564	2451.83833535241	1768.42576765722	158.224992385057	2685.57270745836	1293.57475404918	132.025106444853	2427.22697355841	1228.21242825608	147.041506499712	1825.8597807347	686.341497427435	130	1157.46288624028	861.577701610464	144.292733011895	1061.8324397527	893.054886696976	143.219362643322	1563.7271353415	600.999224261713	158.636532848037	692.236757619417	1081.83717049285	154.897590565946	1671.37455830865	566.594473105551	147.231379644816	635.443390876179	1172.49105829903	144	2143.82121875911	1289.36432012762	136	2178.36417741624	930.869325405148	142	1892.25995686249	1048.08983922341	147	1597.43051931101
398.826372072504	142.797037411537	733.042013841527	1262.72742666511	178.358540190262	1870.466178127	1474.05138762984	143.035529024564	2456.58122584593	1770.37261010851	158.297209540859	2690.57215642316	1295.24870708952	132.013077025505	2432.23615518041	1229.65012761401	147.082229950902	1829.20924303029	687.585879032351	130	1161.08476402851	863.225191298043	144.332112084733	1065.09543865961	894.259335767045	143.219813076059	1568.31556585308	601.994129138947	158.714807460636	694.573099758134	1082.89606505604	154.8861026212	1675.65204270203	567.39379456142	147.237719639323	637.090679193863	1173.45717693878	144	2147.94366602475	1290.09083089373	136	2181.21011279847	931.025164096933	142	1893.89826393788	1048.53497937015	147	1599.51837654683
398.92209557472	142.853093652666	733.470841543254	1263.97875952248	178.517723359125	1874.30031836198	1474.93426690861	143.045373703441	2459.69266243157	1771.55477145872	158.375743973492	2693.84003585631	1296.06070719278	132.009300504501	2434.98349444716	1230.34053821609	147.143386877018	1831.17811291741	688.26200574942	130	1163.34750308155	864.20161161671	144.346254475274	1067.39728784463	894.748797615682	143.233169718304	1570.70465777966	602.48597057592	158.774209448794	696.044496564557	1083.20876748447	154.881540282327	1677.78673977499	567.776798656455	147.24553445321	637.939735615478	1173.92702529262	144	2150.6798884184	1290.3743238941	136	2182.92932370687	930.907522103418	142	1894.67145828325	1048.67974055293	147	1600.88132942184
398.835800249079	142.90331404932	733.314392719736	1264.43436315451	178.655399959881	1876.55634696579	1475.10351921836	143.062484149013	2461.11390474283	1771.86733837296	158.45814764768	2695.30757937152	1296.03312479489	132.013077025505	2435.50266948106	1230.33019124677	147.225790551206	1831.78258053862	688.383943071753	130	1164.24052086386	864.556871987623	144.33343930763	1068.78469966299	894.559281175386	143.260086094511	1570.93564951798	602.524011918963	158.814932899984	696.703346507055	1082.84789865327	154.8861026212	1677.89083473623	567.7824288566	147.261413317408	638.03996526154	1173.9547977568	144	2152.02606019301	1290.27403900477	136	2183.54579788313	930.55106146287	142	1894.57246280191	1048.56307846436	147	1601.52788909264
398.572430211725	142.942876493951	732.591991010263	1264.09168023603	178.768231973646	1877.26531129661	1474.58268698135	143.081076451291	2460.9506480915	1771.31559385657	158.540525129423	2695.07597352316	1295.29567154605	132.023779221956	2434.11155449367	1229.73891942847	147.326872762363	1831.19752259863	688.032719434713	130	1163.9250807499	864.418042926022	144.297383264146	1069.41695428473	893.805654504492	143.29763725592	1569.32361053501	602.209940290223	158.840467059898	696.708172749979	1081.96670634203	154.898917788843	1676.33632192496	567.496366310847	147.291249996161	637.536449085095	1173.64399950685	144	2152.15966020739	1289.8873953639	136	2183.22910556102	930.016266227771	142	1893.7103798724	1048.25685365654	147	1601.57440772759
398.162727654965	142.970243302896	731.391666038893	1263.07609794668	178.856613122982	1876.66442792677	1473.5045850864	143.096431958906	2459.47677359725	1770.03618742639	158.619605774258	2693.41397117326	1294.06713816967	132.04072345119	2431.38900328285	1228.74412144175	147.440770141163	1829.74462884856	687.347882697184	130	1162.72526977566	863.971280150821	144.245970034358	1069.55194439619	892.674213402302	143.340129073376	1566.41653423497	601.690577805942	158.856345924096	696.301734484325	1080.78648486306	154.917596325812	1673.70144417934	567.040446741739	147.338622564971	636.647570137997	1173.12795609566	144	2151.43157899833	1289.32786475354	136	2182.28731447003	929.378573474977	142	1892.31000830905	1047.85202181998	147	1601.24230014766
397.659962298754	142.986922974495	729.872272048181	1261.62745183203	178.923747524246	1875.19333820867	1472.09148645614	143.102147576192	2457.13854754701	1768.27723056848	158.691040656533	2690.76457207729	1292.62527068476	132.062484149013	2428.11886902113	1227.56216428487	147.559229858837	1827.87388674051	686.507784470402	130	1161.10005477538	863.43522381637	144.190261526642	1069.52489541159	891.401183054097	143.378900924449	1562.9087189855	601.139012771542	158.868463256822	695.773069922412	1079.57021998767	154.938843073884	1670.67849622597	566.556599616501	147.403740170416	635.632114432999	1172.56056811229	144	2150.32321866875	1288.72174722555	136	2181.12733868453	928.724051900107	142	1890.68735562933	1047.45212485205	147	1600.82691548254
397.131480506578	142.995349747749	728.239644009521	1260.05662126077	178.976220778044	1873.41147317285	1470.61462977022	143.094680495717	2454.47669328818	1766.35314303995	158.751228392987	2687.66503117055	1291.26337219031	132.087053926439	2425.15217065365	1226.41985171371	147.673127237637	1826.0869475778	685.706068854715	130	1159.56538161132	863.028473864431	144.142059654121	1069.69095218657	890.235477335067	143.407673259252	1559.52736932763	600.730412506161	158.881452368949	695.411083078776	1078.58001900629	154.95927654881	1667.96116893835	566.185208607377	147.483254092533	634.748188055159	1172.0940740972	144	2149.37633827408	1288.19199254661	136	2180.19930477855	928.137248505222	142	1889.20767932205	1047.16015904032	147	1600.65363272055
396.647259247946	142.998672777103	726.720387467485	1258.6893544205	179.023779221956	1871.91136926478	1469.34579573433	143.073173927611	2452.07217679319	1764.58883856179	158.79798867075	2684.69400631113	1290.2402568254	132.114159236662	2423.27906319146	1225.51945921997	147.774209448794	1824.86813540544	685.115868017334	130	1158.61818076004	862.932331629182	144.111781500318	1070.37314244944	889.395215878237	143.422270889703	1556.91352738337	600.610376583994	158.897590565946	695.455210546105	1078.02966822053	154.977548000941	1666.12917621927	566.039905724181	147.570979661445	634.208380857074	1171.85656146951	144.001327222897	2149.0854525596	1287.84112935574	136.001327222897	2179.90318173069	927.689358097907	142.001327222897	1888.2112499805	1047.06144877087	147.001327222897	1601.00781795276
396.268023896468	143	725.523079375288	1257.80356260805	179.076252475754	1871.19898063537	1468.51098587625	143.03992528504	2450.45113697084	1763.26290681904	158.83098522143	2682.37646026902	1289.73229527616	132.143654075904	2423.0794907007	1225.0106793372	147.856613122982	1824.60056925205	684.863186210733	130	1158.64081403759	863.260718644111	144.106009172858	1071.80158847142	889.027483968219	143.423919653568	1555.51429976369	600.869591400941	158.917596325812	696.057515147673	1078.04558828666	154.994227672539	1665.55791528625	566.188358150657	147.660399983371	634.150902445396	1171.93223709258	144.005977475148	2149.81079025202	1287.7391872004	136.005977475148	2180.51561526016	927.429241224974	142.005977475148	1887.95475419417	1047.21058559687	147.005977475148	1602.0819879601
396.034257429526	143	724.805172635552	1257.57412488686	179.142059654121	1871.60759170009	1468.24874785301	143	2450.00441942341	1762.55694581034	158.851766429769	2681.10583816502	1289.80892568383	132.176910446619	2424.82150459478	1224.96864712922	147.917770049098	1825.50049191815	685.005536960392	130	1159.83366723618	864.045641768154	144.124257907312	1074.06890588352	889.185099439036	143.41566369631	1555.53300591724	601.529561703724	158.938843073884	697.262387727319	1078.64218172168	155.011749802608	1666.38108318022	566.64299946949	147.742715744182	634.622399290456	1172.34610793713	144.016400054859	2151.71029675266	1287.91110061286	136.016400054859	2182.13902457824	927.374715852259	142.016400054859	1888.56578222714	1047.62145745634	147.016400054859	1603.93779744191
395.961620820658	143	724.64621259355	1258.04436590012	179.225790551206	1873.23988361265	1468.59170442592	142.96007471496	2450.9263460327	1762.52885962322	158.863388764279	2681.08339611319	1290.42774718451	132.215233581732	2428.41744064001	1225.38831171716	147.958493500288	1827.57894761431	685.526437011267	130	1162.17819051102	865.236949553113	144.16128787806	1077.11140422591	889.820229450869	143.405059461583	1556.91931815232	602.537562199442	158.95927654881	699.007779316808	1079.72623727951	155.034201801667	1668.49168874658	567.360018416501	147.812037585691	635.581383095691	1173.06454321701	144.035529024564	2154.71079709724	1288.33990775937	136.035529024564	2184.68230035231	927.516650227712	142.035529024564	1890.01983515382	1048.27139248395	147.035529024564	1606.49686734727
396.040052001089	143	725.045966913299	1259.13394623677	179.326872762363	1875.98706835505	1469.47631246394	142.926826072389	2453.20871725329	1763.12207502973	158.869702566341	2682.31519453003	1291.45688811089	132.259738361099	2433.47588128599	1226.19537948759	147.982272722244	1830.65946560139	686.344760484433	130	1165.45894597199	866.720517665036	144.208592330198	1080.73123189533	890.802585233507	143.397762695268	1559.4171854144	603.782170185672	158.976220778044	701.149329807161	1081.12094219861	155.064502673146	1671.5985237557	568.252852816776	147.864340023492	636.917066186287	1174.00319312403	144.064502673146	2158.55378593717	1288.96749037618	136.064502673146	2187.90560098894	927.821192929297	142.064502673146	1892.17178256792	1049.10197969762	147.064502673146	1609.57622164189
396.240729655791	143	725.938036184871	1260.67032243928	179.440770141163	1879.59598510398	1470.76513002491	142.905319504283	2456.67772875666	1764.19138798683	158.875562807179	2684.65463515928	1292.71472674954	132.310472707504	2439.41094597629	1227.27135415513	147.994022524852	1834.42923563288	687.339926217971	130	1169.32573369122	868.348341442834	144.257030264044	1084.64803634931	891.956541500995	143.399089918165	1562.65807194936	605.120520601858	158.988250197392	703.501864320849	1082.61237579346	155.101880377306	1675.31993361726	569.213359273611	147.897336574172	638.485300053267	1175.05337029551	144.101880377306	2162.86301897151	1289.7184300417	136.101880377306	2191.47944893774	928.246658286851	142.103207600203	1894.79580111953	1050.04529038621	147.103207600203	1612.9349119638
396.52233260455	143	727.212885110014	1262.43747439589	179.559229858837	1883.75837651816	1472.28295399555	142.897852423808	2461.05078448196	1765.54423817155	158.884775398303	2687.85576424151	1294.01717407737	132.363988608662	2445.58767712382	1228.47855101813	147.998672777103	1838.51790414417	688.380958081487	130	1173.38218424339	869.973356314406	144.299491497737	1088.56788404617	893.1081293876	143.411036936731	1566.25350272479	606.412169277214	158.995349747749	705.883586851803	1084.00700990382	155.143560600305	1679.27241605462	570.137415683757	147.912575622473	640.13928313749	1176.10732052744	144.143560600305	2167.24454170817	1290.51473507729	136.143560600305	2195.06926780078	928.751774323987	142.148210852555	1897.64763602377	1051.034241324	147.148210852555	1616.33714777968
396.843576093386	143	728.74812086206	1264.23322998794	179.674454460534	1888.20011364003	1473.85721984293	142.903568041094	2466.00969356051	1766.99254181384	158.898917788843	2691.64878739955	1295.22220529686	132.415575782932	2451.47582902981	1229.69522922383	148	1842.58417617809	689.358029566316	130	1177.28337142669	871.482810730941	144.332488048418	1092.2535931377	894.123149254727	143.433390974066	1569.88119969134	607.547896911985	158.998672777103	708.156212778144	1085.1677045369	155.183485885345	1683.14871360466	570.943550584403	147.913736629031	641.760433155794	1177.08199017094	144.183485885345	2171.37742555137	1291.29373575555	136.183485885345	2198.40710156939	929.304761375046	142.19656291085	1900.52035851414	1052.01972462852	147.19656291085	1619.60333785897
397.169181646225	143	730.431013426535	1265.90560448461	179.778859701044	1892.74048419418	1475.34995208451	142.918923548709	2471.26755855569	1768.38560077712	158.917596325812	2695.80102767503	1296.25394557993	132.458839086858	2456.74558173345	1230.83479736127	148	1846.37938326214	690.203389729779	130	1180.80563583833	872.816305738291	144.357568300826	1095.57401809793	894.936358149433	143.464098930382	1573.3304769435	608.472045499855	159	710.243242047498	1086.04274858979	155.214979589957	1686.75608567694	571.587179602835	147.904519300307	643.271435933953	1177.93303621256	144.214979589957	2175.05897601792	1292.01642651871	136.214979589957	2201.32131900266	929.885768381738	142.243409064164	1903.26650405245	1052.97568986041	147.243409064164	1622.62928710688
397.477637557909	143	732.173587555207	1267.37902226636	179.86836292559	1897.30144661666	1476.68021041699	142.938843073884	2476.6077208304	1769.63888552746	158.938843073884	2700.14646424894	1297.111351391	132.486994772585	2461.30626425589	1231.85973093506	148	1849.78370371892	690.902071525705	130	1183.87698032889	873.973301260293	144.379613215047	1098.5192156567	895.552792815496	143.498523365457	1576.51370207234	609.184843355934	159	712.132418946224	1086.6620209355	155.232357096474	1690.02285556172	572.061899464407	147.888290061445	644.637803432621	1178.6512279255	144.23368431937	2178.21676212918	1292.66336610965	136.232357096474	2203.738712764	930.481921307414	142.286157573169	1905.80158600034	1053.89285217912	147.286157573169	1625.38115962465
397.757809393935	143	733.911384921633	1268.64236207553	179.941549271054	1901.87673905477	1477.81820977841	142.95927654881	2481.88006028176	1770.72345481364	158.95927654881	2704.57457246768	1297.85338653594	132.494465327829	2465.27811521042	1232.77597023018	148	1852.8043664583	691.485868946398	130	1186.56542419075	874.999887346283	144.404079972099	1101.18169855652	896.037724426265	143.532005635617	1579.44503160899	609.734341758554	159	713.862233110329	1087.11670302399	155.23368431937	1692.97439600592	572.394317501633	147.868375343444	645.861527353413	1179.25818882489	144.237007348724	2180.88791461267	1293.23386542856	136.232357096474	2205.66743042441	931.084749196873	142.323270719693	1908.09514716751	1054.77513427298	147.321943496797	1627.87999385427
398.010596302998	143	735.600896682352	1269.73298952694	180.000544174375	1906.48707353629	1478.78052665954	142.976220778044	2486.9919591289	1771.65926804409	158.976220778044	2709.01342758322	1298.56921759791	132.478327130832	2468.90795430075	1233.61845502495	148	1855.53755087956	692.015881564873	130	1189.02994101027	875.967320884122	144.436918055062	1103.71230583174	896.48015609938	143.55986194659	1582.19174503731	610.192137221226	159	715.493495886419	1087.52008343288	155.219629842208	1695.68595637337	572.62950591564	147.846011257763	646.964983810147	1179.78695523666	144.226729392565	2183.17418137204	1293.73271462705	136.214979589957	2207.16379687729	931.682272230503	142.355833993091	1910.14578383029	1055.62716168637	147.35118374084	1630.17036701783
398.243315588564	143	737.209194127246	1270.7074367716	180.048079900611	1911.12982448502	1479.60670385811	142.988250197392	2491.88166858667	1772.49063138735	158.988250197392	2713.39829672898	1299.34411255331	132.439188926492	2472.47068381768	1234.4294666784	148	1858.12041851536	692.559195059839	130	1191.45327980338	876.94343952059	144.479380621161	1106.26383852829	896.963693572066	143.576345111583	1584.82827100972	610.630165240431	159	717.082179852536	1087.97237914427	155.195235687953	1698.24076824451	572.816543197148	147.820272725157	647.975205141722	1180.26874543442	144.207265107301	2185.19330987301	1294.16433624557	136.183485885345	2208.30029930464	932.259289739607	142.385904299433	1911.96308339127	1056.44856037027	147.375481719722	1632.29601579715
398.462439091701	143	738.711420705488	1271.61639493002	180.088176001649	1915.75377888342	1480.34336785142	142.995349747749	2496.50567453661	1773.26573747839	158.995349747749	2717.66279634422	1300.2321374049	132.382319412218	2476.17015330289	1235.24073956017	148	1860.6756256268	693.168018389959	130	1193.97736523618	877.970208503899	144.528946142812	1108.93870591209	897.537346823794	143.578340848467	1587.40580417818	611.098339315104	159	718.662536065469	1088.53409645225	155.167339822261	1700.70318744233	572.996973538865	147.792387159287	648.915130985165	1180.72017125161	144.184284051494	2187.05520754286	1294.52429666512	136.143560600305	2209.15935430011	932.793289479505	142.416114129048	1913.5677913371	1057.22755308877	147.396985159342	1634.296544421
398.674261730701	143	740.087282051231	1272.48644255433	180.124861433113	1920.25522614327	1481.02967912929	143	2500.83255473316	1774.02381598116	158.998672777103	2721.73732107694	1301.23523661832	132.314493571776	2480.0850362793	1236.05895424546	148	1863.27516794188	693.861253145003	130	1196.66470976126	879.048399186505	144.579663333763	1111.76326316087	898.199888917086	143.5648313703	1589.93233285968	611.610552589907	159	720.235542913511	1089.20821272498	155.142603828496	1703.09924496688	573.192180796541	147.760958700002	649.797176701136	1181.13964450721	144.163037303422	2188.84263746203	1294.80452175379	136.101880377306	2209.82687344055	933.26222100656	142.447081905398	1914.99200624499	1057.94578324176	147.418108256816	1636.20109738381
398.878536065294	143	741.319951558019	1273.31068886354	180.160598305138	1924.49057971128	1481.68547623679	143.004650252251	2504.83657394257	1774.77995446328	159	2725.55201551362	1302.30728234933	132.244207230313	2484.1625202308	1236.8674454873	148	1865.93153313765	694.623706907017	130	1199.48972696839	880.14019071941	144.623142213294	1114.6879443144	898.914266440826	143.536538719592	1592.37775146058	612.15053132312	159.001327222897	721.774782626291	1089.95869444728	155.125659599262	1705.42005612644	573.407949968702	147.726927714332	650.623460747701	1181.50929465541	144.146906347334	2190.6209448913	1294.99177064453	136.064502673146	2210.40000103331	933.645929428641	142.477908705138	1916.29124203917	1058.57879502738	147.440531000978	1638.04133886097
399.071325514053	143	742.407005843597	1274.06102525432	180.197343921545	1928.3279534256	1482.31601204228	143.011749802608	2508.52810266716	1775.53319754518	159	2729.07988459001	1303.36930702325	132.178661909808	2488.25135126402	1237.63660203634	148	1868.60495404058	695.411263487492	130	1202.36085205603	881.181585477441	144.652409546312	1117.61073418986	899.616432049173	143.495932436678	1594.69149113139	612.677232066944	159.004650252251	723.236792216899	1090.719095475	155.117932698753	1707.63629847331	573.634325123851	147.691823705055	651.392308241073	1181.80744653234	144.137938458618	2192.44681488384	1295.07945615275	136.035529024564	2210.99125200103	933.934884053276	142.505691240003	1917.54816040496	1059.10648574625	147.464011017004	1639.8569713739
399.244910010347	143	743.358641073538	1274.69716404864	180.237807552701	1931.67479241578	1482.91208721922	143.023779221956	2511.94665757306	1776.26566084822	159	2732.33439242164	1304.33069383422	132.122582951003	2492.166976656	1238.33118520192	148	1871.23298930345	696.166286415768	130	1205.16026814568	882.10183424543	144.665400337127	1120.41614491011	900.243135591368	143.449987469888	1596.83951711665	613.143817261254	159.011749802608	724.584505801525	1091.42311916185	155.117482266015	1709.73222369369	573.85574048778	147.658927533498	652.108463776025	1182.02377516808	144.13494768591	2194.37831358564	1295.07920861082	136.016400054859	2211.71974648941	934.136252925378	142.527811649749	1918.86433916946	1059.52499365589	147.486559141812	1641.69804406122
399.392063759862	143	744.199315998117	1275.18767073486	180.284394373215	1934.51004226918	1483.45732287403	143.04072345119	2515.16371442219	1776.95417544877	159.001327222897	2735.37747921638	1305.11541942125	132.078884203872	2495.76585680423	1238.92807741236	148	1873.76750746661	696.834123851295	130	1207.79202404538	882.843933157428	144.664962322244	1123.01893957909	900.750662190923	143.405238416825	1598.80949332145	613.512701545159	159.023779221956	725.797469276752	1092.02254164346	155.119874853948	1711.70685015073	574.058630152396	147.63276597554	652.785207765223	1182.16615458523	144.136186995429	2196.47509166891	1295.02167786124	136.005977475148	2212.69913595384	934.275210881826	142.543162419763	1920.34535509507	1059.84858603849	147.505691240003	1643.61916824572
399.509820835444	143	744.966334770854	1275.52693641451	180.339687930007	1936.89724372735	1483.94560905119	143.061156926116	2518.27736107551	1777.58759031762	159.004650252251	2738.31246029756	1305.67809012639	132.046700926337	2498.99001171088	1239.41824828605	148	1876.19501355696	697.377215153995	130	1210.21152950892	883.381056633488	144.657875120167	1125.38850886237	901.126088132406	143.369709184746	1600.62880457618	613.768852447366	159.042050674087	726.885568554275	1092.49850351432	155.121114163467	1713.59266641875	574.237551523099	147.618131020519	653.447011202486	1182.26317784977	144.14033104655	2198.78205776397	1294.95156638517	136.002654445794	2214.00559903127	934.386966051757	142.552938774451	1922.06888516927	1060.10763958149	147.519161213076	1645.66158890722
399.598893286016	142.998672777103	745.696189480186	1275.73569145214	180.404079972099	1938.95461088807	1484.37641987207	143.082403674188	2521.37152314594	1778.16345894418	159.011749802608	2741.23983847601	1306.01531790467	132.02643366775	2501.87624738134	1239.81096438339	148	1878.53875685168	697.782618874222	130	1212.43164669197	883.72073065096	144.653395753487	1127.5473471474	901.387612866495	143.350105772117	1602.35049758941	613.920504571008	159.065807178367	727.879599260826	1092.86311182825	155.118547631051	1715.43763178434	574.396721622793	147.618885838769	654.120143427693	1182.35680161669	144.147783137494	2201.31051114543	1294.918801861	136.004650252251	2215.65087188354	934.510020754735	142.561762332721	1924.0579745658	1060.34105772754	147.526233308156	1647.83039700709
399.666084397454	142.995349747749	746.414826007826	1275.85912560072	180.475516117206	1940.8133449003	1484.76306423084	143.101082211157	2524.48437862962	1778.69353724165	159.023779221956	2744.21579176637	1306.15055633054	132.016400054859	2504.5201623676	1240.11629064738	148	1880.83479865722	698.057846441488	130	1214.50074038211	883.893281585287	144.660583217222	1129.54863785271	901.572647807864	143.350133227394	1604.02631574755	613.993291227707	159.094153476797	728.816425653326	1093.14591319233	155.112832013765	1717.27857568732	574.545625814411	147.635570247969	654.821706220174	1182.48309797294	144.159960655163	2204.01539997677	1294.95757221778	136.011749802608	2217.56634630866	934.670548371523	142.574319846253	1926.26385073364	1060.57970921736	147.527194679623	1650.08003068069
399.719352896431	142.988250197392	747.124301538148	1275.94282631085	180.547904296521	1942.56071041564	1485.11778584676	143.1138973788	2527.56329154124	1779.18910349472	159.04072345119	2747.20473814387	1306.123806888	132.016400054859	2507.01734134198	1240.33689086479	148	1883.09876286948	698.222588390187	130	1216.4667051972	883.935771081637	144.683912006441	1131.43590089394	901.721629174899	143.36800329839	1605.67362862947	614.017535785421	159.124861433113	729.71352716112	1093.37715660288	155.106182896144	1719.10451409585	574.692807022742	147.664347389945	655.540562845488	1182.65104951877	144.180416847766	2206.75889131845	1295.06545538983	136.023779221956	2219.57082600481	934.869326717091	142.59529479578	1928.54164521599	1060.82691519695	147.524908123086	1652.28234548478
399.764117495833	142.976220778044	747.790238074446	1276.00401562213	180.611876835921	1944.17039509415	1485.43287206364	143.118459717673	2530.42608872485	1779.63681210376	159.061156926116	2750.03387743415	1305.9649815817	132.025106444853	2509.36813070376	1240.4513650347	147.998672777103	1885.27097394855	698.292085031981	130	1218.31954202537	883.868028432136	144.72253626103	1133.19240807635	901.857666422693	143.398312382239	1607.23541106136	614.008275691441	159.15462082999	730.543391199058	1093.56903638901	155.101880377306	1720.81687437208	574.834848204168	147.698228120269	656.224926061949	1182.83045299989	144.210958587743	2209.31390350773	1295.19788493113	136.04072345119	2221.39065356885	935.078558140472	142.625054192658	1930.66810036115	1061.05317083121	147.521418877394	1654.23305804551
399.797528520834	142.95927654881	748.338029031404	1276.01079959881	180.655377242205	1945.46272818037	1485.66826033381	143.1138973788	2532.75139701387	1779.98863977139	159.082403674188	2752.37995584606	1305.6693763337	132.04072345119	2511.41400594449	1240.40297479265	147.994022524852	1887.18454772701	698.261303712435	130	1219.95365885269	883.671660328402	144.769813188317	1134.70790544482	901.965918909678	143.430236930398	1608.55852162975	613.950042349345	159.178289420892	731.217932301754	1093.69283052475	155.101880377306	1722.2090556975	574.948610498805	147.726663422735	656.779172541968	1182.94694852483	144.251306780671	2211.3610237072	1295.26769228324	136.061156926116	2222.67344314344	935.241862869315	142.659783013246	1932.36065745845	1061.19090727597	147.517977350899	1655.65726033754
399.808936418289	142.938843073884	748.657253655162	1275.87327184882	180.668222993612	1946.0941157151	1485.74864794862	143.101082211157	2534.09605528813	1780.1602422008	159.101082211157	2753.78731322603	1305.18603561583	132.061156926116	2512.79213537025	1240.1020923816	147.982272722244	1888.54434176155	698.095690311021	130	1221.14194010382	883.281333081673	144.814932899984	1135.76299692398	901.985075124075	143.453331317033	1609.38149076644	613.7889498322	159.190323577841	731.585858576886	1093.67169022803	155.106182896144	1722.96288511591	574.986685249207	147.740458079864	657.065897877231	1182.89362421988	144.297549342542	2212.53169512662	1295.16459318196	136.082403674188	2223.04720184774	935.288809623459	142.693583430239	1933.3271499595	1061.15037216741	147.515981544442	1656.25116384246
399.776997621965	142.917596325812	748.615068096938	1275.44987497504	180.641524768227	1945.59235287169	1485.57587336507	143.082403674188	2533.96251534762	1780.04303610107	159.113897378801	2753.73653757918	1304.42232597329	132.082403674188	2512.96772674055	1239.44138840031	147.958493500288	1888.95902156965	697.732034831194	130	1221.55733571506	882.595730156707	144.844863320374	1136.05534567833	901.813915414837	143.458300740743	1609.35095556418	613.438900700664	159.184437144558	731.447573891933	1093.39013545485	155.112832013765	1722.67370886162	574.883007270665	147.732158774707	656.922633354331	1182.54702611731	144.344084190483	2212.44896328575	1294.77267515889	136.102409434054	2222.16846941709	935.145366687583	142.717702774928	1933.30849991721	1060.83136087307	147.514319327036	1655.72308470445
399.677490173828	142.898917788843	748.082083020238	1274.57977839264	180.57289039224	1943.44016941433	1485.05082370845	143.061156926116	2531.89125831989	1779.53116746353	159.117132494776	2751.73841524	1303.25828565712	132.101082211157	2511.31999896955	1238.31954054406	147.919097271995	1888.0089815407	697.086810680192	130	1220.81970195098	881.496472835839	144.848617123702	1135.24851368913	901.327567315588	143.441735174968	1608.08615589826	612.796369307893	159.156121776174	730.596014175492	1092.70986647269	155.118547631051	1720.92829482724	574.563784604461	147.70102310333	656.195421106988	1181.80145126691	144.383196202378	2210.79435113302	1294.00673540418	136.118547631051	2219.78620938213	934.759925881159	142.726106830507	1932.12862973316	1060.15441372522	147.512878703738	1653.85009941882
399.486809214068	142.8861026212	746.956672825019	1273.11977851596	180.46392288243	1939.18559012292	1484.1007929047	143.04072345119	2527.55726109639	1778.54867376551	159.10924712655	2747.4360854444	1301.57824370756	132.1138973788	2507.27820402348	1236.66822160334	147.861263375233	1885.33507609671	696.076105069249	130	1218.57810025625	879.879941118235	144.819756875521	1133.04718626141	900.405389102044	143.405223961145	1605.24393352133	611.769251445434	159.103364168035	728.856713780776	1091.50054434086	155.11978694057	1717.37857524994	573.964807922305	147.650410680943	654.769845153425	1180.59503662922	144.408914247458	2207.37763281308	1292.83523722827	136.130209520281	2215.80883940298	934.114600971162	142.714807460636	1929.73757663619	1059.08189856386	147.51025045039	1650.53620091073
399.192230360294	142.881540282327	745.192757833817	1270.99329743122	180.321706660477	1932.56223950473	1482.71015732238	143.023779221956	2520.8634760893	1777.08262240722	159.089332408549	2740.70514152376	1299.29997470506	132.118459717673	2500.46811237828	1234.47033886153	147.785959251402	1880.73212575758	694.637871887193	130	1214.59541938844	877.688823604061	144.757809393935	1129.27318958552	898.960285651988	143.357161215988	1600.60116328445	610.300595551666	159.028961230728	726.134686693317	1089.67542819097	155.113897378801	1711.82893383859	573.048356202645	147.589251113575	652.599044740525	1178.92956017625	144.418375455703	2202.17926594849	1291.29509983573	136.137676600757	2210.32847342861	933.236824932956	142.684635466324	1926.22079744563	1057.63473918588	147.50579983323	1645.84122674633
398.794978002065	142.886102621199	742.818483861319	1268.21981179165	180.156261662125	1923.58096668971	1480.93089308771	143.011749802608	2511.99674149577	1775.19332522812	159.058624452232	2731.71440333574	1296.41363801339	132.1138973788	2490.84353602557	1231.78645072474	147.696906459593	1874.23224018158	692.757373118531	130	1208.8244581421	874.941394422734	144.667149762489	1123.92650211217	896.969739286761	143.308601310232	1594.13096277594	608.396309916157	158.939250158721	722.450313229334	1087.22254306527	155.101082211157	1704.31434643016	571.82093714269	147.52902931859	649.729735234218	1176.8801758759	144.410323871137	2195.37488624729	1289.49202246413	136.141805662347	2203.62070281782	932.19780566151	142.638820619514	1921.79243457266	1055.89652542796	147.496587242107	1639.9889618696
398.314244921026	142.898917788843	739.938145483765	1264.92709024614	179.979994240135	1912.56869130018	1478.88215137716	143.004650252251	2501.41807026706	1773.0122072369	159.019106252029	2720.92014917884	1292.99700402828	132.101082211157	2478.74934648029	1228.75163504473	147.599953310026	1866.13485883719	690.48180453559	130	1201.45147562909	871.743075267273	144.55790263594	1117.21557796603	894.493332824315	143.273613552754	1586.04455008634	606.133344991062	158.844860413085	717.956005790569	1084.22596130434	155.082403674188	1695.13234216555	570.339113100522	147.482205882952	646.305372972738	1174.5874663261	144.38688175109	2187.34311059557	1287.58864750394	136.143560600305	2196.13644615097	931.102243133879	142.582915605193	1916.77874803571	1054.00359867244	147.481035227887	1633.35702534719
397.783953145123	142.917596325812	736.719338607518	1261.33928034546	179.803698947011	1900.13697832084	1476.73313566459	143.001327222897	2489.80135881607	1770.72218402813	158.973589049926	2709.00520386598	1289.22399587277	132.082403674188	2464.90714393416	1225.56644391498	147.50192706728	1856.980520091	687.927202755739	130	1192.89288147459	868.284544743017	144.440770141163	1109.54595398496	891.678288486336	143.260619703026	1576.78266348862	603.660606091888	158.755346888716	712.921348895714	1080.8693330615	155.061156926116	1684.82255092592	568.706401997793	147.455855390979	642.551441139537	1172.23874848902	144.351611455902	2178.62867522681	1285.77812751971	136.143560600305	2188.44885826674	930.072722682547	142.521846592455	1911.57835743454	1052.12680277598	147.457343919309	1626.43177954804
397.248185236667	142.937515850987	733.375848424637	1257.74511374317	179.636897470866	1887.10917271826	1474.68386334145	143	2477.9619837151	1768.53581300507	158.923648270012	2696.81007734427	1285.35291726061	132.061156926116	2450.31000672001	1222.48288351942	147.409276436551	1847.46995183362	685.271381073504	130	1183.74116106741	864.8239996837	144.326872762363	1101.46188402159	888.743758491251	143.274940775651	1566.96981693133	601.178922856924	158.68018189225	707.701994555595	1077.41683522608	155.04072345119	1674.10421482336	567.060876161418	147.454645332818	638.743765416476	1170.03689878308	144.30869505187	2169.87263389722	1284.24814191754	136.141805662347	2181.16935996251	929.224034910039	142.459448678132	1906.6052223365	1050.43763677429	147.423919653568	1619.73669153585
396.754498219759	142.953299073663	730.13800995603	1254.44785736311	179.486838979748	1874.39254439488	1472.92649872087	142.998672777103	2466.73893731419	1766.65410947444	158.86916109174	2685.20637642938	1281.6919131098	132.04072345119	2436.07553906718	1219.76510715458	147.32819998526	1838.35870756582	682.729688460096	130	1174.68324324275	861.649151393685	144.225790551206	1093.57053869708	885.950245261784	143.313251562483	1557.33980436423	598.909797764997	158.625051492884	702.689282529155	1074.1737720734	155.023779221956	1663.78687857284	565.55293069239	147.47508917714	635.175373775988	1168.16861231054	144.262130949032	2161.73029985788	1283.15470588685	136.137676600757	2174.86492420621	928.647134330515	142.396990721564	1902.23827453357	1049.0840518229	147.380590666705	1613.75807329325
396.344899704459	142.959820723185	727.217528764693	1251.7095870116	179.358742430659	1862.83621105124	1471.61150945464	142.995349747749	2456.87434555596	1765.23094150562	158.809850145445	2674.9715693189	1278.55369591444	132.023779221956	2423.26306903388	1217.65401408362	147.263261730966	1830.32873813547	680.524660883408	130	1166.39498780558	859.036410836239	144.143386877018	1086.44688711932	883.558577859888	143.367583795699	1548.62767985269	597.060127886485	158.593374346906	698.253473846754	1071.4397236676	155.011749802608	1654.64802564919	564.322965670798	147.511237871603	632.112318530712	1166.78134712602	144.215145668354	2154.78577711789	1282.59865179615	136.130209520281	2169.98618503743	928.395070631314	142.335020522302	1898.77725272308	1048.16696931248	147.329043047154	1608.88263207078
396.051363788813	142.952721172828	724.788781192049	1249.71751607882	179.255096815573	1853.12903012323	1470.83554656909	142.988250197392	2448.9569345861	1764.35950139514	158.745458103353	2666.72501471525	1276.20975583094	132.011749802608	2412.7097640494	1216.33362873221	147.21841694633	1823.88202839238	678.850169931871	130	1159.44059097351	857.208610800842	144.082229950902	1080.55111260239	881.785137875662	143.425680153747	1541.4613749591	595.78811002315	158.584139862727	694.69014521909	1069.45515617952	155.004650252251	1647.32016168067	563.476184714372	147.554912222371	629.757693239407	1165.96046571098	144.171020884849	2149.46213561423	1282.60957025285	136.118547631051	2166.79564597822	928.475992753829	142.273430318903	1896.3988617537	1047.72615547359	147.272103096006	1605.34112459133
395.891783834935	142.930847074603	722.971467269766	1248.56055618143	179.179037873492	1845.71992695091	1470.63129880754	142.976220778044	2443.36681411782	1764.06699445616	158.678039347749	2660.86534462575	1274.84784097834	132.004650252251	2404.94248379952	1215.90640980272	147.196910378224	1819.3008298463	677.84307578504	130	1154.2085452759	856.304999319187	144.042833722609	1076.18066740681	880.770761650045	143.4753590758	1536.29214988459	595.183083675765	158.594445274163	692.190635164418	1068.36996000393	155.001327222897	1642.22659679771	563.072702690688	147.597942026803	628.234650410398	1165.72878146209	144.13083890826	2145.97630902023	1283.15463223946	136.102409434054	2165.34353055244	928.859002169089	142.213242582449	1895.14674684925	1047.74515356251	147.213242582449	1603.19389276661
395.868930454742	142.896792399797	721.817303225407	1248.22932134402	179.132420122932	1840.78631605392	1470.9722090673	142.95927654881	2440.24640270308	1764.31935478841	158.613551526192	2657.53784942704	1274.54826941216	132.001327222897	2400.1353692517	1216.38342459879	147.201039439814	1816.63209101115	677.566371805897	130	1150.87251223905	856.365072932597	144.023704752903	1073.44675720974	880.56263514286	143.507428247511	1533.34821235577	595.256054417656	158.619414895517	690.829049264849	1068.22449693126	155	1639.53984036697	563.121358979333	147.63441506967	627.581765094195	1166.05266612002	144.095480699693	2144.34795659586	1284.15448260747	136.082403674188	2165.51422266431	929.488405976391	142.15663762581	1894.95964501942	1048.16438933754	147.15663762581	1602.3634587024
395.973910799673	142.856439399695	721.322043940444	1248.6430561454	179.116901457891	1838.27890414825	1471.7977229992	142.938843073884	2439.53993627092	1765.05034939208	158.55905613555	2656.67637929595	1275.27461980373	132	2398.16097260307	1217.68121259148	147.231768026354	1815.73912315795	678.001109905888	130	1149.41159113948	857.329108146369	144.022377530006	1072.30153697076	881.116465941267	143.51746353909	1532.62029889279	595.949860395302	158.654798471908	690.567036212655	1068.95382281882	155	1639.18326222798	563.583875125425	147.660067367586	627.754011272807	1166.85334797554	144.065807178367	2144.41291444391	1285.49711299068	136.061156926116	2167.05354819034	930.293735176873	142.107857852454	1895.68611547082	1048.89574454438	147.106530629557	1602.66374232535
396.188268819846	142.816514114655	721.43517957667	1249.67329582854	179.132420122932	1837.97461508881	1473.02155123629	142.917596325812	2441.02887979595	1766.1735214544	158.523000092065	2658.0444072156	1276.89581651566	132	2398.68062695885	1219.65352855751	147.288274700219	1816.37501862872	679.061892787734	130	1149.65046032575	859.0594929961	144.038183470358	1072.57644719732	882.318577169458	143.504908191481	1533.89793329121	597.157978671948	158.695952766645	691.278986151728	1070.41766937359	155	1640.87750899121	564.390698029375	147.673575236638	628.642689244505	1168.03028658159	144.042050674087	2145.88634359136	1287.06506010555	136.04072345119	2169.63701350519	931.207951459909	142.07180737119	1897.12966111902	1049.84684539962	147.065829896043	1603.85280365654
396.489000530795	142.785020410043	722.074213889707	1251.17928632819	179.177710650595	1839.54815866519	1474.55004231486	142.898917788843	2444.37736025608	1767.59913582913	158.511939862379	2661.28605395491	1279.20214011181	132	2401.24520672552	1222.10476479801	147.367596213553	1818.25616724936	680.609775788085	130	1151.31771780894	861.359710420403	144.069152925397	1074.03433611258	884.008213589964	143.473235735212	1536.82640297893	598.744235817423	158.740278794355	692.781273994179	1072.42488820016	155	1644.20765577754	565.452878680141	147.674448898312	630.09874032845	1169.4779936965	144.023779221956	2148.4241628362	1288.75249501452	136.023779221956	2172.93004818545	932.177012493727	142.05325630232	1899.08268100067	1050.93574512538	147.035529024564	1605.68077702014
396.851182921871	142.767642903526	723.14224760463	1253.02146145724	179.249119340425	1842.63568100361	1476.2797802687	142.8861026212	2449.1766799433	1769.2325895761	158.528884091613	2665.97822604244	1281.9467052234	132	2405.38584499302	1224.82240363787	147.46454936312	1821.1130918426	682.478971469209	130	1154.10520803804	864.00897368769	144.113630179914	1076.41453665679	886.004717091969	143.42760520228	1540.96344518282	600.563144895737	158.785971669255	694.858671736516	1074.76516011391	155	1648.68551089394	566.674146254822	147.664962322244	631.949442070876	1171.09727081303	144.011749802608	2151.66455394212	1290.47587097709	136.011749802608	2176.61427707743	933.164883668522	142.056579331674	1901.34184103537	1052.09925601288	147.016400054859	1607.90989679355
397.252211801103	142.767642903526	724.534758765336	1255.07875232675	179.341015152904	1846.86506433433	1478.11078391549	142.881540282327	2454.98051269832	1770.98617851198	158.572407215573	2671.67269443661	1284.87890456458	132	2410.65564247666	1227.60559074803	147.570979661445	1824.70588461519	684.500190971808	130	1157.70393799111	866.786841218527	144.167339822261	1079.45888680994	888.129643098245	143.374962962797	1545.83186127279	602.472728526658	158.831783387579	697.285357606844	1077.23421725487	155	1653.80199348622	567.960777494994	147.648826558982	634.015203869735	1172.80080470882	144.005977475148	2155.27176730602	1292.17250680787	136.004650252251	2180.41217561377	934.149520145003	142.083557173799	1903.72499789638	1053.29210885587	147.005977475148	1610.33278890954
397.669612574495	142.785020410043	726.148141363101	1257.24287961151	179.445332480036	1851.87325629507	1479.93879127162	142.886102621199	2461.33465720301	1772.76890306859	158.636809557488	2677.92399353019	1287.77380554618	132	2416.64768836296	1230.28216008016	147.677777489888	1828.82319599066	686.52125305967	130	1161.8248304434	869.497077618915	144.224209336535	1082.92404501326	890.224689835663	143.320966045139	1550.97812333185	604.345116260059	158.874218428828	699.844433986069	1079.65045196541	155	1659.0855535411	569.229549724384	147.629575617367	636.12811083673	1174.51208755192	144.005977475148	2158.94549237995	1293.79872689539	136.001327222897	2184.07961054987	935.117201401608	142.132964297307	1906.06944513029	1054.4804145618	147.001327222897	1612.76751194513
398.085467904594	142.816514114655	727.878938078725	1259.41771235643	179.554667519964	1857.30285348467	1481.66294298944	142.90024501174	2467.78695139252	1774.48992826366	158.713306514452	2684.29485783483	1290.45246328069	132	2422.97591004468	1232.72063699899	147.775536671691	1833.24997276208	688.418708441792	130	1166.19721352316	871.98053263334	144.276136516073	1086.57864129363	892.157364297253	143.271063923415	1556.00249186929	606.070833461359	158.910413599677	702.341934775377	1081.86171224118	155	1664.12941857837	570.408362468231	147.611703112635	638.138850215004	1176.16439212303	144.011749802608	2162.45304114472	1295.32442724725	136	2187.43478505365	936.057352691842	142.200684106353	1908.25304296976	1055.63623297708	147	1615.07413657874
398.483051852135	142.856439399695	729.624709962839	1261.51521464797	179.660312069993	1862.80927244464	1483.1977814957	142.922246578062	2473.92159273051	1776.06889155343	158.791936726549	2690.38480166362	1292.79447761775	132.001327222897	2429.27357521257	1234.83254597184	147.856613122982	1837.75147016872	690.106544471205	130	1170.5742108629	874.126951891581	144.316087993559	1090.20988592732	893.831297461589	143.229917446873	1560.58311809026	607.566325340341	158.935776943594	704.616324107452	1083.75437573989	155	1668.61258153393	571.441310439057	147.597687383713	639.928361999063	1177.69224254945	144.023779221956	2165.62708262938	1296.71841074663	136	2190.35591820316	936.951425919766	142.280171836026	1910.19451092027	1056.726607258	147	1617.15378746908
398.85117982221	142.896792399797	731.294519850095	1263.45949375661	179.755530911825	1868.08292604538	1484.48114634095	142.950592876492	2479.40225339917	1777.4425501787	158.861263375233	2695.86337477854	1294.73973375147	132.005977475148	2435.2074529647	1236.57352823471	147.917770049098	1842.08583270896	691.536036886715	130	1174.73650217071	875.875225611759	144.339416782778	1093.62927061221	895.18612123732	143.200256391292	1564.50232951891	608.776725435971	158.94646408094	706.555332654482	1085.25436226585	154.998672777103	1672.32670332239	572.291401912516	147.588459803058	641.416161697136	1179.03794177593	144.04072345119	2168.36476613137	1297.94964089508	136	2192.77818917108	937.77559774126	142.361885937291	1911.85114383315	1057.71556579764	147	1618.94776852189
399.180829539667	142.930847074603	732.81405237309	1265.19447868082	179.836693597807	1872.87957683913	1485.48543403708	142.983055770766	2484.0024674476	1778.57537020864	158.914447019745	2700.49447050657	1296.28349576654	132.016400054859	2440.50852040878	1237.94004096403	147.958493500288	1846.0260072343	692.69242262422	130	1178.50795047013	877.213448895526	144.345277023616	1096.69303923163	896.198021623416	143.18373987712	1567.65567721894	609.6811929849	158.941549271054	708.107739923889	1086.32831135776	154.995349747749	1675.1851408701	572.943076990161	147.584330741468	642.569476407126	1180.15208919816	144.061156926116	2170.63771119228	1298.98676020552	136	2194.7126630796	938.499605375165	142.436646907833	1913.23052808583	1058.56654783585	147	1620.45291719029
399.4698171818	142.951393949931	734.130968172973	1266.69290729328	179.901986826423	1877.05103733577	1486.2236207919	143.016944229234	2487.62824388723	1779.46555740619	158.94674369768	2704.1564587329	1297.46400694815	132.035529024564	2445.01249664005	1238.95708982694	147.982272722244	1849.39676762892	693.588891336153	130	1181.77544746375	878.172409218578	144.337474627582	1099.32102462645	896.880941912232	143.180416847766	1570.04694644617	610.295394750492	158.922443019025	709.284229739394	1086.98930856632	154.988250197392	1677.21734845038	573.402489809539	147.583009080793	643.401995570492	1181.00665924814	144.082403674188	2172.4800067871	1299.81029818178	136	2196.23795686104	939.098922249257	142.494465327829	1914.38020073335	1059.25635409287	147	1621.71939565418
399.720408972099	142.955170470934	735.229083723534	1267.96782123076	179.953299073663	1880.57901110004	1486.74994956943	143.049407123508	2490.34108526351	1780.14964648816	158.958493500288	2706.86920268524	1298.35924900029	132.064502673146	2448.69818311894	1239.68441519521	147.994022524852	1852.11801017349	694.264252461596	130	1184.50809903959	878.822832081034	144.323287875148	1101.51377225737	897.283203976085	143.187179365787	1571.77416415894	610.66982619398	158.892489880959	710.155530235936	1087.29459449689	154.976220778044	1678.55714784836	573.698364432985	147.580712668234	643.97127575775	1181.59748376924	144.101082211157	2173.96913361903	1300.41456995828	136	2197.47265247972	939.55716817971	142.528674995583	1915.36916517894	1059.77770100452	147	1622.83357116618
399.940580081392	142.941549271054	736.12471590906	1269.07001555651	179.994022524852	1883.57121965912	1487.14865079395	143.077753421938	2492.32737948762	1780.69321760544	158.953299073663	2708.77084877795	1299.06844859355	132.101880377306	2451.7006732802	1240.20241725818	147.998672777103	1854.23090994347	694.774067221768	130	1186.76633701672	879.262643209025	144.310820440916	1103.35545944821	897.483508081309	143.201487972667	1573.01249241449	610.882450468633	158.858194337653	710.840296508133	1087.34131403742	154.960603771707	1679.42099716418	573.878583264904	147.575106557112	644.367115224072	1181.94668838907	144.113897378801	2175.21384111933	1300.81515534185	136	2198.56001466237	939.871710595573	142.536142076059	1916.27632130757	1060.145923963	147.001327222897	1623.90736637486
400.140911716732	142.913736629031	736.864415281803	1270.080549482	180.028973648582	1886.23911077968	1487.51693768042	143.09975498826	2493.85837985062	1781.17407945499	158.937515850987	2710.08833541127	1299.69969885731	132.143560600305	2454.28855736129	1240.60371017407	147.998672777103	1855.89236372407	695.184586971193	130	1188.6916461603	879.603440621696	144.308194225395	1105.00041432575	897.579468807849	143.218590669617	1573.97728998645	611.026382502556	158.824945695083	711.479844833854	1087.25354920458	154.943493326134	1680.06516233415	574.001115541528	147.5626748601	644.697168431889	1182.10174814686	144.118459717673	2176.3307968483	1301.0503373508	136	2199.63660511961	940.05642649804	142.519050582022	1917.17140409739	1060.39917785856	147.005977475148	1625.04909729317
400.335037677756	142.875545651725	737.512307922768	1271.09668353691	180.061156926116	1888.84742590891	1487.95003308124	143.1138973788	2495.2336363266	1781.67439229763	158.917596325812	2711.09238996869	1300.35174662422	132.183485885345	2456.78685430854	1240.97952022116	147.995349747749	1857.32658215018	695.562616187958	130	1190.46941799719	879.954328187595	144.321678335737	1106.62967010432	897.667849785031	143.236029897067	1574.87914302909	611.192700594519	158.799136608139	712.20834201183	1087.15830375915	154.92934612842	1680.73604221339	574.123014664033	147.543156857541	645.060845108594	1182.12428869551	144.115224601697	2177.41759045682	1301.17096899163	136.001327222897	2200.79904415906	940.136117122131	142.483775549232	1918.09640043523	1060.58619727836	147.017727277756	1626.33651053556
400.534485603076	142.833110610476	738.141642318253	1272.20807351475	180.094153476797	1891.65353157675	1488.52108528483	143.118459717673	2496.7286457725	1782.25728498655	158.898917788843	2712.05088341267	1301.09958076172	132.214979589957	2459.51278017311	1241.4062520575	147.988250197392	1858.78140579614	695.96568207465	130	1192.29148323583	880.401890987567	144.354333046908	1108.41409470395	897.829850019333	143.251835837418	1575.90304994565	611.451918605596	158.785020410043	713.130777128824	1087.16190400121	154.922697010799	1681.64070886706	574.288423737596	147.518523563101	645.537925027875	1182.07529984963	144.105732463407	2178.53667453888	1301.22684403137	136.004650252251	2202.0824784887	940.139259137664	142.439442918267	1919.0575328757	1060.75370382021	147.041506499712	1627.7951994078
400.748964366558	142.791949144403	738.812946274725	1273.47458756677	180.13083890826	1894.83844450763	1489.26552975224	143.1138973788	2498.53482013971	1782.95539897872	158.8861026212	2713.17335139471	1301.97634045235	132.232357096474	2462.69024244034	1241.92773440228	147.976220778044	1860.46187032729	696.430858787922	130	1194.30865757041	880.994233808506	144.404173447698	1110.46933236726	898.11488715921	143.265366065007	1577.17459813824	611.842242588603	158.785020410043	714.29774213307	1087.33411116515	154.926826072389	1682.90680179626	574.522218292112	147.493435098323	646.172154025979	1182.00714893281	144.094153476796	2179.71219327142	1301.26062907713	136.011749802608	2203.4662198562	940.094106190352	142.39634959682	1920.03266876994	1060.93573550538	147.080902728005	1629.39835820104
400.98278857188	142.756678849214	739.564151593947	1274.91215647711	180.172348107746	1898.46872028902	1490.17688958096	143.101082211157	2500.73822770447	1783.76453830739	158.881540282327	2714.5850141735	1302.97087270546	132.23368431937	2466.38325851559	1242.54889173232	147.95927654881	1862.47402741508	696.969738212394	130	1196.58934549945	881.732028083635	144.466574420934	1112.8235723199	898.538136131133	143.27826190512	1578.75092701096	612.36700153637	158.799136608139	715.702600564756	1087.69793751869	154.942697208443	1684.57210088843	574.827435311049	147.473062011925	646.9679571192	1181.95830200839	144.084936148072	2180.93974474233	1301.30293037325	136.023779221956	2204.894818308	940.02490610434	142.363467151963	1920.985455099	1061.15030054254	147.13740940187	1631.08022475666
401.234196335098	142.731481791209	740.407651386164	1276.48986711775	180.219795920604	1902.48838743889	1491.2126509189	143.082403674188	2503.31807954462	1784.65016285125	158.886102621199	2716.32011145807	1304.02853757662	132.219629842208	2470.49923283338	1243.23578262118	147.938843073884	1864.81473175682	697.567810614584	130	1199.11395998858	882.572460866835	144.534752801963	1115.41970402644	899.083653965472	143.290016514902	1580.6208373382	612.99810271353	158.824945695083	717.285750888218	1088.23608444793	154.968506295388	1686.58943710919	575.189642883214	147.460405311998	647.89517014409	1181.94409957251	144.08144690238	2182.19854165944	1301.36364859057	136.042050674087	2206.30417241676	939.946551777906	142.345925225189	1921.88393435695	1061.39329939422	147.208063273451	1632.75960198058
401.495955154354	142.717973922157	741.328483283403	1278.13443183627	180.272553528743	1906.74156692485	1492.29776386343	143.059829703219	2506.17068919337	1785.54879393465	158.897590565946	2718.33593899933	1305.06990926715	132.19656291085	2474.82136671319	1243.92897442876	147.917596325812	1867.38945578904	698.189873145104	130	1201.78644392046	883.441987522265	144.601804027449	1118.13419934192	899.717942973408	143.301418584098	1582.73569870349	613.688767084429	158.858194337653	718.961612597239	1088.90521178262	155	1688.86425267798	575.586357650375	147.45682246261	648.906494408211	1181.96779166581	144.084936148072	2183.48887266616	1301.44363516685	136.065807178367	2207.67207993154	939.871088746413	142.345665405154	1922.73127947268	1061.64952420717	147.285366262651	1634.38062354002
401.755530911825	142.715317797675	742.298751628622	1279.75228643689	180.327824021576	1911.0337588563	1493.34679337697	143.036073198939	2509.1595492987	1786.38980082287	158.912946073561	2720.55401111961	1306.00819682225	132.171990074511	2479.08712632714	1244.55824017333	147.898917788843	1870.05567616907	698.790908861186	130	1204.47494542046	884.257290537705	144.662067007951	1120.82205767935	900.406451077587	143.311665540638	1585.02948683124	614.390787436121	158.893817103856	720.641939034551	1089.65382925465	155.031493704612	1691.28704011624	575.996968738301	147.459448678132	649.952138576966	1182.02869395462	144.094153476796	2184.84202010892	1301.54321869357	136.094153476797	2209.03509765102	939.810678392959	142.362930843675	1923.57073953822	1061.90615033714	147.359867413159	1635.93197782145
402.001050513447	142.718951373815	743.286426573522	1281.25510551039	180.38191232738	1915.18432600452	1494.28423967515	143.010702196451	2512.15727093151	1787.11516284538	158.925766048379	2722.89165751875	1306.78035247343	132.154353631104	2483.07049635622	1245.06899660366	147.886102621199	1872.67700925524	699.329949726307	130	1207.05853008716	884.952191542335	144.713850688827	1123.35985502408	901.126126337872	143.318454251104	1587.45615546545	615.068017542903	158.927093271276	722.266139806041	1090.4442984104	155.057302791557	1693.77986051772	576.410239846679	147.463342074306	650.999818217793	1182.13044876076	144.105732463407	2186.32892592453	1301.66696128791	136.124861433113	2210.48960907875	939.781729435652	142.396013269906	1924.48755913021	1062.16133870236	147.421820456966	1637.45856127817
402.222458011288	142.722796219006	744.273333821579	1282.58587735269	180.430236930398	1919.09124027812	1495.06430671463	142.983320328401	2515.10311292073	1787.69768471518	158.930847074603	2725.31657305358	1307.36243294666	132.149438821218	2486.65119465826	1245.44176224224	147.881540282327	1875.16761056715	699.784468535448	130	1209.46744229769	885.494092738742	144.756308447751	1125.6824028811	901.873103113882	143.318620467443	1590.00875773778	615.705249253231	158.954626296559	723.815789291768	1091.26019475026	155.073173927611	1696.31916927601	576.827818997122	147.462181067747	652.041682074091	1182.2880807897	144.115224601697	2188.04329641224	1301.82825614789	136.15462082999	2212.16268898782	939.80636047502	142.442878374755	1925.58773575562	1062.43113110259	147.46373674129	1639.04760510081
402.415842981819	142.7203516585	745.257625659525	1283.72758049437	180.469731371892	1922.74159160912	1495.67773258663	142.952176998453	2518.00173651235	1788.14704652902	158.923747524246	2727.84459074729	1307.78176869066	132.158656149942	2489.84129033189	1245.69718686559	147.886102621199	1877.51330153491	700.156900876353	130	1211.70441231623	885.896703375793	144.79105993639	1127.79783449588	902.662209234977	143.309133066754	1592.72959228909	616.309678016124	158.974893555147	725.316700018568	1092.10806317171	155.077302989201	1698.94716046675	577.261431247858	147.4509387291	653.098913248893	1182.52558619941	144.118459717673	2190.07270737374	1302.05083682395	136.179616643789	2214.16870450925	939.911848532076	142.500198321767	1926.97090562044	1062.74896984494	147.484192933892	1640.80213740037
402.584746088301	142.707969768139	746.249396315914	1284.70603887489	180.499807240455	1926.19781272246	1496.15383660067	142.916391074825	2520.90647291077	1788.50801385474	158.90331404932	2730.52643185918	1308.10617738355	132.178639192132	2492.75463195269	1245.89077007853	147.898917788843	1879.75338375015	700.474293710764	130	1213.83291860657	886.209805088133	144.820272725157	1129.77103038331	903.519470861534	143.289218348752	1595.681882512	616.904269256875	158.988250197392	726.820288119893	1093.01050834355	155.07065387158	1701.733872661	577.72864669963	147.428222172406	654.203424704807	1182.86165188662	144.113897378801	2192.45230530844	1302.35024793662	136.196301052989	2216.55896896749	940.119020279045	142.565631574276	1928.6939925253	1063.15124619906	147.486323130112	1642.80016202196
402.736302687886	142.686204263142	747.263698465776	1285.57478509337	180.523965125869	1929.55714105172	1496.54654070411	142.876872874622	2523.87841425117	1788.84674125489	158.872222622371	2733.41788598998	1308.42051868566	132.202278528136	2495.53981927018	1246.08977871957	147.917596325812	1881.94385653865	700.778741677477	130	1215.94153785439	886.502406869349	144.846011257763	1131.68871952092	904.465858755739	143.258785202002	1598.92343494009	617.514275772522	158.995349747749	728.380521205751	1093.98460974301	155.056506673866	1704.74093500352	578.242098207463	147.394972197431	655.386175782293	1183.29804845316	144.102409434054	2195.13204911416	1302.72814202284	136.20349164521	2219.28307485202	940.438000062502	142.636005829117	1930.75022555136	1063.66596427936	147.47947506822	1645.06573928918
