Light	Light	Light	Light	Light	Light	Light	Light	Light	Light	Light	Light	Light	Light	Light	Light	Light	Light	Light	Light	Light	Light	Light	Light	Light	Light	Light	Light	Light	Light	Light	Light	Light	Light	Light	Light	Light	Light	Light	Light	Light	Light	Light	Light	Light	Light	Light	Light
Optode1-730nm	Optode1-Ambient	Optode1-850nm	Optode2-730nm	Optode2-Ambient	Optode2-850nm	Optode3-730nm	Optode3-Ambient	Optode3-850nm	Optode4-730nm	Optode4-Ambient	Optode4-850nm	Optode5-730nm	Optode5-Ambient	Optode5-850nm	Optode6-730nm	Optode6-Ambient	Optode6-850nm	Optode7-730nm	Optode7-Ambient	Optode7-850nm	Optode8-730nm	Optode8-Ambient	Optode8-850nm	Optode9-730nm	Optode9-Ambient	Optode9-850nm	Optode10-730nm	Optode10-Ambient	Optode10-850nm	Optode11-730nm	Optode11-Ambient	Optode11-850nm	Optode12-730nm	Optode12-Ambient	Optode12-850nm	Optode13-730nm	Optode13-Ambient	Optode13-850nm	Optode14-730nm	Optode14-Ambient	Optode14-850nm	Optode15-730nm	Optode15-Ambient	Optode15-850nm	Optode16-730nm	Optode16-Ambient	Optode16-850nm
286.690542154723	141.125647181409	562.135074063205	1445.98671013902	236.300652642238	2049.36673644492	662.883882645927	141	1250.18118766744	1020.92976509884	164.004650252251	1430.58331606234	1048.91694602435	130.437708610532	2320.0653362403	1001.13363108822	152.974893555147	1444.08612695823	637.869794428062	128.587641352968	1142.98608191973	1130.19086473197	176.187607080848	1547.6472832177	859.83399444864	141.884775398303	1510.79671995593	1511.8130284214	191.272009620406	2179.75124782741	1290.76830431577	139.530621099122	2285.49689284783	781.940399206736	151.076252475754	1083.95015804954	653.88320949363	128.730792218287	1454.45334934629	978.153591682286	140	1923.49138047654	356.714366538463	127.345189110238	922.563393088076	689.16286548002	181.905424320738	1135.54937846888
286.320906648872	141.142238939629	560.461420294737	1442.9811270231	235.835500764673	2043.03373996369	661.839779317267	141	1246.74183864285	1019.29208021469	164.001327222897	1426.48483088577	1047.94492418032	130.422758509067	2314.56509718182	999.85261074728	152.953299073663	1439.27877498171	637.226238550208	128.577908395805	1139.25723408559	1128.54233695183	176.122336569908	1542.7210673689	859.18523890035	141.876890030076	1507.25786434428	1510.34631012851	191.167339822261	2175.19465902771	1288.69964136812	139.534137869664	2277.8242962794	780.998304351404	151.040179276815	1080.90147071999	652.150379214393	128.710781651248	1448.78903964305	976.625554912229	140	1918.04064594802	356.446747616311	127.371360920127	920.974028540794	687.627379122328	181.793263949446	1131.50944106389
286.016695770856	141.15462082999	559.107057452424	1438.80822371605	235.366028122157	2035.24863179069	660.722380378652	141	1243.27215756005	1017.27105488689	164	1421.75367180982	1047.02822555697	130.411557352397	2309.29687202212	998.831994113044	152.922443019025	1434.94221038039	636.602869392485	128.560317941548	1135.651162466	1126.96105788855	176.064502673146	1538.05880388093	858.647116928259	141.874352818591	1503.84072681787	1509.00405209674	191.065829896043	2170.95755206686	1286.82511845798	139.548280260205	2270.43763430897	780.201187733213	151.019054500653	1078.13547912001	650.521136212811	128.699962290061	1443.3965138638	975.293638464618	140	1912.86654472578	356.19079058339	127.378813011071	919.464045718828	686.169157005595	181.680431935681	1127.712563514
285.76702982232	141.162239137273	557.98243097394	1434.05668851069	234.914352809898	2026.92025719168	659.563973586687	141	1239.80234543838	1015.04540712039	164	1416.63426950073	1046.1020379068	130.402854090888	2304.26909460877	997.92365600918	152.882067301247	1430.90568735843	635.966719884237	128.537983110764	1132.21663889344	1125.45560980478	176.016400054859	1533.74263134988	858.198763006163	141.875138566887	1500.57817666857	1507.83322378915	190.976047054757	2167.10610863985	1285.20157531093	139.571327394857	2263.68123353578	779.571955427363	151.011954950295	1075.7546913038	649.00312358844	128.70183572516	1438.40410845402	974.147427903743	140	1908.13610571668	355.936824549751	127.371617215767	918.06506201426	684.802439482087	181.566534556881	1124.28245943437
285.55995559376	141.164807348377	556.999259984085	1429.33018396075	234.503082466774	2018.95780730411	658.412951892077	141	1236.39788532544	1012.82611797239	164	1411.44168898026	1045.12141289492	130.393732887912	2299.50903815618	997.009740855027	152.8330878928	1427.05339383025	635.29124189196	128.514467425358	1128.99411964011	1124.02966149439	175.977003826566	1529.83947409493	857.807477971324	141.876872874622	1497.48854497747	1506.85974839447	190.904351089616	2163.65437234546	1283.84443730466	139.600474500687	2257.76727653157	779.110196181607	151.017727277756	1073.78326446519	647.601861974609	128.713842426831	1433.92777793095	973.160905692305	140	1903.96759826159	355.679104712785	127.355475959856	916.80864877094	683.539377825596	181.458497418919	1121.31360191661
285.383584583916	141.162239137273	556.094105246303	1425.12727361085	234.149096887241	2012.11333802972	657.323823979899	141	1233.16446446892	1010.81348509422	164	1406.52226851165	1044.08078019342	130.382157029787	2295.09870171791	996.040712321754	152.779571991643	1423.38178827839	634.565727635215	128.493414418474	1126.03265785322	1122.69564208323	175.944820549031	1526.41601507756	857.434096237462	141.876358924871	1494.6015607676	1506.0872364011	190.854422775447	2160.60819785872	1282.735947208	139.630033916191	2252.81674168519	778.800073896658	151.035529024564	1072.20224291221	646.325773011018	128.731484490983	1430.07180580328	972.308109635554	140	1900.43671813567	355.418323704326	127.337839516449	915.72875860937	682.396025293948	181.369706484972	1118.86991587621
285.228989171375	141.15462082999	555.24785901311	1421.75826555269	233.863679139251	2006.87225860147	656.348295072377	141	1230.24583596055	1009.16637109625	164	1402.21558286579	1043.02119959284	130.367863412439	2291.20132050462	995.046348940894	152.726229879414	1420.02615887428	633.801305551699	128.476843340103	1123.40491426897	1121.48007056251	175.918923548709	1523.55638577546	857.041221034745	141.872222622371	1491.97734792844	1505.50497296455	190.828893305242	2157.99619920956	1281.84600339685	139.654422508224	2248.90388619528	778.621127770452	151.064502673146	1070.98621937485	645.197140994279	128.746313583101	1426.92475352617	971.577448095901	140	1897.58161724825	355.162708576557	127.325820349032	914.856607312402	681.396572346788	181.313997977256	1116.98260198903
285.092240846117	141.143566162526	554.487943596715	1419.3142578534	233.652227864277	2003.38638754535	655.530908426251	141.001327222897	1227.80405402187	1007.98221958874	164.001327222897	1398.80156609429	1042.0252662569	130.352388991827	2288.05122715608	994.129333981788	152.678837513898	1417.23668408674	633.031904171557	128.464547325293	1121.21252721097	1120.42564197698	175.898917788843	1521.36020537631	856.601925525785	141.863388764279	1489.73049910909	1505.09142590667	190.82707108413	2155.91159591224	1281.14585320054	139.667261434577	2246.12725555091	778.556426871285	151.101880377306	1070.14395909162	644.257702166214	128.749125721617	1424.56700982099	970.987326567153	140	1895.42917462701	354.928861874755	127.322489571056	914.223871263876	680.577888873961	181.304501031792	1115.661551084
284.975624852292	141.130297433659	553.877555541824	1417.67666776327	233.518574165619	2001.47805857744	654.903932763632	141.004650252251	1225.9895397813	1007.28749091026	164.004650252251	1396.45599122697	1041.20103271449	130.339600016629	2285.9180499653	993.439127197973	152.643214747696	1415.32384803103	632.310589309564	128.453497395429	1119.57399221309	1119.58875368384	175.8861026212	1519.92798059301	856.109013320298	141.850573596635	1488.02860131595	1504.8290279775	190.846177336159	2154.50905089179	1280.62763625814	139.662611182326	2244.63019780548	778.596781214423	151.143560600305	1069.73292148674	643.56967698554	128.733485997604	1423.07754430201	970.590574366353	140	1894.0111391983	354.739076643029	127.329392818393	913.859705724971	679.987338299552	181.350854224717	1114.90671744138
284.885577453371	141.117482266015	553.49999083203	1416.58309700929	233.469045070201	2000.70124302632	654.489802244385	141.011749802608	1224.91795562878	1007.04830672038	164.011749802608	1395.22541964963	1040.65795379724	130.331261156752	2285.04905417999	993.131221198015	152.624082303222	1414.57675481421	631.697915246549	128.438644752117	1118.6050538676	1119.02203238593	175.881540282327	1519.33525270212	855.57944550399	141.836166578886	1487.06897412998	1504.70459096059	190.881540282327	2153.97543839745	1280.30513321925	139.638022453365	2244.58960051761	778.741359073481	151.183485885345	1069.84526110723	643.209888414558	128.69567849093	1422.52109185137	970.463296874338	140	1893.35763148534	354.619028065795	127.343540016108	913.783608104222	679.678974299213	181.455259465227	1114.70740325184
284.833645466659	141.107510119041	553.436684602413	1415.69493635094	233.51206185509	2000.44134594923	654.297363100716	141.025106444853	1224.64603056469	1007.17961752473	164.023779221956	1395.01808430066	1040.47765806255	130.33019885063	2285.61544069404	993.320930130397	152.624082303222	1415.19316021882	631.248845007431	128.416192753058	1118.3965186994	1118.75762640961	175.8861026212	1519.6115022377	855.053650246079	141.823618472186	1487.04936498843	1504.71303541901	190.92602790624	2154.48218835577	1280.20942737606	139.594504891626	2246.16887260445	778.991705957788	151.214979589957	1070.57895298289	643.253777868277	128.636532848037	1422.94474549482	970.688961312358	140	1893.49537882289	354.592871107495	127.360396331964	914.00500071148	679.701086037597	181.613634098545	1115.04907594679
284.832330661616	141.103207600203	553.747309934772	1414.67734805347	233.653250547311	2000.02299610041	654.322985286087	141.046700926337	1225.15049119166	1007.56665157868	164.04072345119	1395.61314107967	1040.68996704267	130.336890898488	2287.65452875335	994.049840324855	152.643214747696	1417.21219216227	630.997769500859	128.383222394823	1118.98569655258	1118.79050226126	175.898917788843	1520.71540084685	854.581785081273	141.816514114655	1488.10493251413	1504.84202196498	190.972091716454	2156.11033805905	1280.36774162046	139.534644604644	2249.43058247284	779.342055436121	151.232357096474	1071.98700678912	643.759490815502	128.563373909958	1424.3553145354	971.333159395884	140	1894.4230728631	354.679134478464	127.375215054686	914.515672427986	680.086222140097	181.814777107147	1115.90371706776
284.893504743186	141.106530629557	554.458538898343	1413.26154353405	233.892431512064	1998.8489239593	654.547799975684	141.077556980975	1226.33835982236	1008.08674306128	164.061156926116	1396.71390246615	1041.2700350582	130.3508993865	2291.03118680872	995.274088595446	152.677510291001	1420.4874476463	630.955936578147	128.340214948927	1120.3331704015	1119.0805665008	175.917596325812	1522.52355844431	854.216686211831	141.816514114655	1490.26940416033	1505.07476993269	191.012276821529	2158.80503445658	1280.79182447935	139.466123988197	2254.26998014889	779.775366896747	151.232357096474	1074.04075998554	644.745848426816	128.486055931226	1426.70744436651	972.416939862087	140	1896.09842890344	354.884214845294	127.384719728295	915.291328515072	680.83653269889	182.042050674087	1117.22621274828
285.02292295295	141.117932698753	555.553923867344	1411.29049417554	234.218158640903	1996.49612395448	654.937934402185	141.117932698753	1228.0496493517	1008.62650540532	164.082403674188	1398.00105775778	1042.13787281116	130.371181634619	2295.45954743321	996.87036265381	152.721579627164	1424.709299848	631.107222168445	128.292559288608	1122.32798198055	1119.55845306918	175.938843073884	1524.84978076244	854.000625332732	141.824945695083	1493.44521831863	1505.38609925681	191.042317872973	2162.36148243444	1281.46446813905	139.397620109543	2260.37764022631	780.261704008966	151.216306812854	1076.61243986561	646.185019911014	128.417244910982	1429.89305838422	973.907072415022	140	1898.43161044793	355.202031584366	127.386969664469	916.292909960348	681.919551018538	182.276136516073	1118.94969277098
285.219224005939	141.136611235721	556.977123323478	1408.73335719734	234.60726690153	1992.79921421996	655.443545014561	141.165584884303	1230.09473792957	1009.09892668756	164.101082211157	1399.2027274686	1043.18169417038	130.396204973268	2300.52559077779	998.668800752993	152.767822189035	1429.45007445826	631.415991008279	128.247444384116	1124.79097394679	1120.14669971516	175.95927654881	1527.46514065191	853.957785257743	141.840816831137	1497.40019742448	1505.74966706366	191.060358759967	2166.4431458759	1282.33950749564	139.339949787868	2267.24879750975	780.763699982176	151.188136137596	1079.48239827748	647.998614507918	128.368379262075	1433.73706001593	975.71666472942	140	1901.28187752216	355.613224313934	127.382039795478	917.46526731521	683.26789307638	182.498246656007	1120.98101702288
285.471586862278	141.159271082241	558.63528207079	1405.68803891869	235.025627901552	1987.8600454346	656.00668230364	141.215777756107	1232.27193597746	1009.45534429228	164.1138973788	1400.13704736994	1044.28037310933	130.422763246668	2305.77258078991	1000.48781069135	152.809308670844	1434.25283440978	631.837080923148	128.213761131858	1127.50853744956	1120.77889427826	175.976220778044	1530.14293423234	854.094117480148	141.862323399243	1501.8052225116	1506.14451685511	191.069047031943	2170.65124086358	1283.3503829254	139.303347532181	2274.25873772721	781.244430004302	151.155310402913	1082.37792390374	650.066914726035	128.347945787148	1438.00251786161	977.717916780963	140	1904.46458149768	356.088207426049	127.371098528415	918.738371907199	684.787514576875	182.691979497892	1123.20362984979
285.762661886583	141.180943866686	560.413592779607	1402.34962152525	235.434957495844	1982.0145758495	656.566869635226	141.262020317978	1234.40223750747	1009.68323914422	164.118459717673	1400.73616158453	1045.32818603283	130.448126590585	2310.7827658735	1002.17088174642	152.840016627161	1438.71134870392	632.324639666813	128.197444252777	1130.26862302795	1121.41167376292	175.988250197392	1532.69710726176	854.398018983275	141.887167986235	1506.29316603112	1506.56665021096	191.073186345464	2174.60980292912	1284.42385554857	139.294943476603	2280.78341505673	781.676813575608	151.125659599262	1085.03242841143	652.250303484076	128.35862045875	1442.42045297478	979.770031049595	139.998672777103	1907.78005417068	356.593378009243	127.35478157976	920.035154605186	686.375071441589	182.846600327882	1125.48839429771
286.070450574986	141.196301052989	562.187428562825	1398.97145681451	235.798844939756	1975.7284468402	657.069463771459	141.297383264146	1236.33756282346	1009.80285446317	164.1138973788	1401.02332070152	1046.24829219785	130.46845062538	2315.23296774541	1003.60749467872	152.855308617761	1442.52926658918	632.837839486738	128.202034046926	1132.88506579688	1122.02607281106	175.995349747749	1534.99804471092	854.845589297295	141.912946073561	1510.51426152478	1507.02118997665	191.076796650129	2178.02404639113	1285.49225221297	139.317398534575	2286.29415762429	782.04629720059	151.105226124336	1087.2288907561	654.407494052214	128.398050745574	1446.7240646514	981.743238034399	139.995349747749	1911.04154030289	357.094947694603	127.334499331641	921.281801975061	687.931292310429	182.957345562899	1127.71151620019
286.374933389488	141.202164422313	563.841636744869	1395.81966487127	236.08965506904	1969.49133635835	657.476502439649	141.316061801114	1237.97693285769	1009.85625908501	164.101082211157	1401.08268523522	1047.00386363676	130.479620295197	2318.93605468586	1004.74645036103	152.853168121718	1445.55221472022	633.347467542722	128.226197636044	1135.22000303835	1122.62251372101	175.998672777103	1536.97855652596	855.407043578215	141.937515850987	1514.19800691874	1507.52496790192	191.083608925175	2180.73295296176	1286.50194858123	139.366790181317	2290.45462833444	782.352061983106	151.09668595068	1088.84144079537	656.420496350261	128.458777035659	1450.69921435997	983.539043981313	139.988250197392	1914.11305906034	357.56631989863	127.313111676532	922.423262120074	689.378486611139	183.025689952751	1129.77933554999
286.661906491776	141.196301052989	565.283225652708	1393.12331093674	236.293678235312	1963.70357708017	657.770257669095	141.314760770662	1239.26269214673	1009.89258219753	164.081076451291	1401.01023455325	1047.59034903107	130.480066038225	2321.83436558632	1005.5902354383	152.832304844278	1447.75932218003	633.834347265063	128.266501584543	1137.18812162083	1123.20838643809	176	1538.61956311676	856.050870758832	141.957949325913	1517.17531485006	1508.09193816756	191.094153476796	2182.70095451372	1287.41652589646	139.434630283585	2293.14134870605	782.603281229485	151.098803729047	1089.83910319857	658.207915966655	128.531150155869	1454.21809498127	985.106118161702	139.976220778044	1916.92945686553	357.989362762038	127.29412565169	923.434637858882	690.669149999741	183.059575711445	1131.64143227833
286.922964475724	141.179616643789	566.457543249881	1391.04112356272	236.413215132451	1958.6173818543	657.956018743983	141.29351402259	1240.1833909223	1009.95454200126	164.055179450969	1400.88206153151	1048.02762932485	130.468051677981	2323.98217258634	1006.17967886402	152.79212286769	1449.23684125904	634.287927061274	128.3151058043	1138.75723289963	1123.78604198516	176	1539.93398246477	856.750834090528	141.971570525793	1519.39526539404	1508.73470152056	191.105732463407	2184.00588245026	1288.2181199473	139.506844518417	2294.43434898434	782.813246819231	151.107059686304	1090.27861930232	659.730917732023	128.604233111189	1457.26182773906	986.437247916596	139.957949325913	1919.50801193859	358.356609204351	127.281854033244	924.330450335536	691.788844541709	183.069326648683	1133.30173048636
287.157233551561	141.15462082999	567.352322871775	1389.6473583943	236.464891297097	1954.34954844762	658.054639032565	141.257030264044	1240.77572210968	1010.06872252036	164.024323396331	1400.75167683672	1048.3416141274	130.443834371569	2325.49807540544	1006.57351894004	152.733503153058	1450.12619261925	634.704601935702	128.365326131381	1139.9386938948	1124.34480342937	176	1540.94879381402	857.489467233097	141.976500394784	1520.89878750912	1509.46003888775	191.115224601697	2184.77884659712	1288.90310599308	139.572052892567	2294.54682405553	782.997231448383	151.115224601697	1090.26529593913	660.992345834987	128.669804208283	1459.90730592873	987.563360869175	139.934192821633	1921.92153406088	358.670400134035	127.282302787293	925.155514823425	692.752228303916	183.068256476474	1134.80729603795
287.367844405892	141.124861433113	567.993532372043	1388.9431115943	236.472936140465	1950.91126442951	658.100743006679	141.211915359552	1241.11381480081	1010.24619525937	163.986922974495	1400.6481405549	1048.55884469761	130.408476232575	2326.54134360439	1006.8326779464	152.658984847096	1450.59095706431	635.084373618466	128.411537763206	1140.7836156606	1124.86678197515	176	1541.70466649823	858.254678720146	141.971570525793	1521.79933527186	1510.2630655347	191.118459717673	2185.17634392397	1289.47522299364	139.619326760942	2293.76891126816	783.166564769696	151.118459717673	1089.92868706301	662.02481252903	128.71945220029	1462.29234697624	988.538530333883	139.905846523203	1924.26693953237	358.939438999636	127.296680484111	925.971289544243	693.593492730073	183.0678257025	1136.22978075856
287.55754382771	141.094153476797	568.435570273803	1388.86229055236	236.461072799513	1948.25719173454	658.126098957182	141.167060205521	1241.29727076559	1010.47529559829	163.941269654315	1400.58861118861	1048.69255647211	130.366295321043	2327.27488593927	1007.00159014669	152.57204502648	1450.78132147955	635.428631957017	128.449725612026	1141.37111633921	1125.32396571748	176	1542.24940991232	859.038059460621	141.957949325913	1522.24210888335	1511.12708745209	191.1138973788	2185.33068668682	1289.93944569555	139.643370540533	2292.39487348151	783.326741896994	151.113897378801	1089.38911525674	662.875468431981	128.749553436678	1464.57120343481	989.419385755994	139.87381134399	1926.62424064453	359.176181187301	127.326872762363	926.835843780452	694.353235009803	183.076252475754	1137.64020070441
287.729633911503	141.065807178367	568.749513440769	1389.30544173429	236.444965805719	1946.33384534136	658.159786931877	141.130309851513	1241.43707433335	1010.7397705296	163.886369820086	1400.59413746436	1048.74446392098	130.320444854478	2327.84161462608	1007.10175715683	152.476826184648	1450.81279408697	635.73868042423	128.478467016783	1141.79605250212	1125.69085923303	176	1542.63950727491	859.827368441606	141.938843073884	1522.37767049454	1512.02357126683	191.101082211157	2185.33871631895	1290.2988083039	139.642584792238	2290.68676830863	783.478826728706	151.101082211157	1088.74404033556	663.592925063027	128.75717174396	1466.8769751932	990.251650548499	139.840728917759	1929.0371965956	359.392741991929	127.369880208258	927.79294957899	695.067239028907	183.09668595068	1139.09442817646
287.884618356897	141.042050674087	569.004457522417	1390.16074008373	236.427171924998	1945.0931763281	658.223428044638	141.106553347233	1241.63218433332	1011.0255615406	163.822237598028	1400.68785962263	1048.71568268118	130.278531003891	2328.35517197684	1007.14268639548	152.379613215047	1450.76743918215	636.0188784527	128.49915545321	1142.15909132711	1125.95919099957	176	1542.94074962393	860.607821847475	141.917596325812	1522.34451140583	1512.91548823409	191.082403674188	2185.26451554935	1290.55489236151	139.620671139294	2288.86635414965	783.619776797771	151.082403674188	1088.06870530548	664.217150793003	128.742020609038	1469.30102532894	991.062820116788	139.808633553603	1931.5101169502	359.59862608713	127.420313948561	928.864482744038	695.76131565714	183.127777377629	1140.62428794443
288.024643594262	141.023779221956	569.261140290262	1391.32484847016	236.40022041326	1944.50265812935	658.333466151439	141.098013173577	1241.96243446896	1011.3345288158	163.752011441509	1400.90347831298	1048.61328802385	130.244902365457	2328.8971598147	1007.13095136961	152.286149311173	1450.70263543481	636.27746373897	128.513418140512	1142.55399011173	1126.14367862387	176	1543.22643925525	861.359258087923	141.898917788843	1522.25405404901	1513.76346286965	191.061156926116	2185.13984502921	1290.71026578081	139.582465172456	2287.10774620616	783.745908802129	151.061156926116	1087.41608854936	664.773928584386	128.705068941251	1471.8778170782	991.856275769596	139.779919725055	1934.00553692808	359.798786836899	127.472175932398	930.046889959624	696.445070622175	183.16356636017	1142.23476729827
288.154605712363	141.011749802608	569.569807083427	1392.7153884544	236.351340308673	1944.53919970868	658.507065986557	141.104781204195	1242.48632076726	1011.69365860153	163.683140032737	1401.28530820008	1048.45566760536	130.223494138647	2329.52317476819	1007.08012397238	152.20201132925	1450.66445448325	636.527396352541	128.522632340751	1143.06308444387	1126.2807088245	176	1543.57345426086	862.0616895521	141.886102621199	1522.20045650474	1514.53464384026	191.04072345119	2184.99794107069	1290.77339974488	139.535988982996	2285.56546219247	783.854692892254	151.04072345119	1086.82955441729	665.276345960172	128.649798448418	1474.5912763256	992.617770897687	139.757112126497	1936.45947486917	359.992695301956	127.518267267461	931.315336654471	697.11656482773	183.197628275886	1143.90781996305
288.281766119866	141.004650252251	569.963366248052	1394.27006666437	236.268247061562	1945.1850292326	658.76005388835	141.12478696406	1243.23818941553	1012.14695859433	163.624082303222	1401.88390494848	1048.27509151522	130.21710227923	2330.27190893042	1007.01853651872	152.132964297307	1450.69974564226	636.785803458565	128.529470461959	1143.7510999693	1126.42753441553	176.001327222897	1544.05908714713	862.697669253	141.881540282327	1522.26015748336	1515.20690538077	191.025106444853	2184.87906946014	1290.75946572898	139.489117461857	2284.37827193983	783.945592853002	151.025106444853	1086.34848454024	665.728373546979	128.582558648055	1477.39255894062	993.324257412879	139.742542020895	1938.8030877941	360.176181187301	127.554129173849	932.631610003543	697.766557017337	183.22419218108	1145.61493033195
288.41567130699	141.001327222897	570.465019260814	1395.95340318562	236.146897591818	1946.4312762136	659.111387429687	141.155403878512	1244.24479152111	1012.75321337686	163.584157018181	1402.75858957365	1048.11641137058	130.223258077322	2331.1803683795	1006.99375368449	152.082229950902	1450.86753428726	637.073108969122	128.534234045038	1144.66480825365	1126.64967824952	176.004650252251	1544.75166945025	863.260918539166	141.8861026212	1522.49392547233	1515.77667138473	191.016400054859	2184.83445649305	1290.69591074581	139.44955188874	2283.66780997467	784.024196606616	151.017727277756	1086.00567669733	666.129076838462	128.511237871603	1480.21571263892	993.947702932049	139.737979682022	1940.97522472382	360.342140135403	127.57589155036	933.952976312999	698.383042872101	183.240871783106	1147.32204497643
288.565236907292	141	571.089936429968	1397.73722902234	235.996781787102	1948.27390758326	659.574574822364	141.194712193427	1245.52811272923	1013.55907641334	163.570040820086	1403.9689718944	1048.02182366106	130.239796118248	2332.28323517739	1007.05896077293	152.051929079423	1451.23554749223	637.407806914768	128.537983110764	1145.83184509108	1127.00118257588	176.011749802608	1545.70205967315	863.753644491393	141.898917788843	1522.95878545326	1516.25265056531	191.016400054859	2184.93310323806	1290.61544667115	139.423541557589	2283.54569455033	784.09844677191	151.021050307109	1085.83457270773	666.478159014608	128.446115528558	1483.00300071876	994.465925454978	139.744296958853	1942.94159301723	360.482194334561	127.584771884837	935.241184870951	698.954979637035	183.25062584883	1149.00244877671
288.734821976017	141	571.843510400651	1399.59885291417	235.842274732668	1950.70156667006	660.155197848905	141.239556978063	1247.10268236532	1014.58648931069	163.584157018181	1405.55572113561	1048.0272879814	130.263458171929	2333.61181553399	1007.2677605865	152.042833722609	1451.87178199767	637.803374168488	128.541878544765	1147.25841677131	1127.51729342267	176.025106444853	1546.92930059633	864.183116096204	141.917596325812	1523.69252706401	1516.64463852461	191.025106444853	2185.23236769192	1290.54765387879	139.414735154774	2284.08251348868	784.174609246833	151.036856247461	1085.85648193259	666.780360647228	128.398138658952	1485.72517170564	994.868721541448	139.761241188087	1944.70878232925	360.590897286735	127.583641168546	936.476265541246	699.478500854118	183.260729257082	1150.64340892254
288.92547336247	141	572.726062127133	1401.51214156317	235.722863976979	1953.69064191602	660.845656116674	141.285366262651	1248.97728826901	1015.82011533924	163.624082303222	1407.53051800462	1048.15391159338	130.288694854226	2335.17258048664	1007.66386144874	152.051351178588	1452.82744611483	638.266485677657	128.545175381674	1148.9233400691	1128.20226820344	176.045373703441	1548.40898264604	864.56191704946	141.938843073884	1524.71924932662	1516.96370445807	191.04072345119	2185.77243420863	1290.51605726206	139.424715119943	2285.29991828062	784.259375520691	151.064502673146	1086.07877417224	667.049308830103	128.376106162584	1488.39176474425	995.160528808221	139.78738680553	1946.3251890657	360.66635159634	127.578706561954	937.657418621957	699.95602037783	183.282629840857	1152.25079296886
289.132433192101	141	573.72898442403	1403.44911296572	235.689340003397	1957.17830872225	661.627613135195	141.32704648565	1251.13731490292	1017.20658879592	163.683140032737	1409.85587710594	1048.40280365372	130.312451288934	2336.94610191891	1008.26929122126	152.074233951621	1454.12452826302	638.794164346712	128.548951902678	1150.78257738494	1129.02685249472	176.072906728724	1550.07315262256	864.900392419803	141.95927654881	1526.04006428105	1517.20924391673	191.061156926116	2186.55702599562	1290.52913448584	139.452112858934	2287.15559613824	784.3515286517	151.101880377306	1086.48858411226	667.30651004536	128.384446701149	1491.04441540457	995.361907340365	139.820295442833	1947.86365415897	360.710398076884	127.574753123536	938.800641496378	700.398701536627	183.32926725018	1153.84136224779
289.347407974884	141	574.8317046545	1405.37343647451	235.795318038694	1961.04350583146	662.470346259349	141.358540190262	1253.53556572521	1018.66159152309	163.752011441509	1412.43482544803	1048.75259655085	130.330375077225	2338.8565132037	1009.07632878346	152.106182896144	1455.73313011961	639.371455910333	128.551253518319	1152.76257319911	1129.92831363989	176.104855673248	1551.80296933833	865.202567618232	141.976220778044	1527.62412617912	1517.36643662189	191.081076451291	2187.53562087647	1290.57639529871	139.494195429169	2289.52418538626	784.441173337082	151.143560600305	1087.04204685476	667.578908802352	128.422231490147	1493.77602955702	995.502795616197	139.85553989186	1949.47514324508	360.728306688606	127.576054153987	939.933992980761	700.81948737277	183.411635187149	1155.44801488075
289.563077137764	141	576.000693349694	1407.24467692276	236.082956817252	1965.07902683931	663.343640025389	141.37416275882	1256.08414529289	1020.09908191321	163.820910375131	1415.12880244087	1049.16947628612	130.339433938232	2340.79239332371	1010.05950526603	152.141805662347	1457.60152675483	639.97268954209	128.550277087748	1154.76316738548	1130.82704303523	176.137155410096	1553.45680377136	865.462149284208	141.986922974495	1529.40387409107	1517.41420260772	191.095104736009	2188.61846169747	1290.62210993937	139.547311070543	2292.19520375186	784.509822459121	151.183485885345	1087.66855172138	667.904555803644	128.48282081525	1496.72446167253	995.636893475042	139.889166851605	1951.40769613099	360.728441078369	127.583903026407	941.091308274207	701.241830890603	183.535548060823	1157.12774261355
289.774590219652	141.001327222897	577.18776735981	1409.00331531628	236.571365650015	1968.98820416191	664.219846330751	141.371360920127	1258.66232208475	1021.44487253318	163.883046790732	1417.78391683247	1049.61495967696	130.33729344219	2342.60928113915	1011.1801904766	152.175054304917	1459.65488580308	640.562145500106	128.541590494459	1156.66180135083	1131.64063228189	176.161977279412	1554.8874668234	865.662427507286	141.990699495499	1531.26613288398	1517.33656532498	191.096170101045	2189.67969001293	1290.61414536628	139.606337870012	2294.87560377072	784.533872329498	151.214979589957	1088.27138703363	668.331158761114	128.552130308479	1500.06795234401	995.841182751698	139.915343468667	1954.02575103304	360.720364076354	127.595935920524	942.304219763503	701.698612885584	183.699552505449	1158.9633178673
289.980603969351	141.005977475148	578.335164953482	1410.56494294559	237.247745563063	1972.39399310265	665.081546294556	141.351166585386	1261.12842123782	1022.65919750051	163.935497326854	1420.26274781328	1050.05461308394	130.325317740137	2344.1662541114	1012.40225348793	152.202190614758	1461.83531797331	641.096574086221	128.522287735824	1158.32402411839	1132.30326781179	176.172433917655	1555.97749705533	865.780763591371	141.986922974495	1533.05901348701	1517.13627583511	191.078280440858	2190.58595874126	1290.49002898644	139.667525726174	2297.21373456898	784.491116895289	151.232357096474	1088.74105352904	668.918243980263	128.615724114849	1504.0283632918	996.223698631388	139.929519851706	1957.83108313161	360.716217255885	127.608357365605	943.605256705474	702.236866155219	183.893290084935	1161.07791248062
290.184284051495	141.016400054859	579.384568128648	1411.81987771876	238.063920458658	1974.89333789899	665.92408385116	141.318433571255	1263.35211468778	1023.74432120357	163.979543807398	1422.48985819512	1050.47081747391	130.30456599028	2345.36452604182	1013.70880283119	152.220957065105	1464.1302196559	641.53351195165	128.490164846818	1159.62152146839	1132.78528698017	176.162506336159	1556.67427798922	865.795343428714	141.976220778044	1534.61181512762	1516.85129901795	191.037644903046	2191.23534245107	1290.18991940734	139.724792025463	2298.85027742957	784.367964544784	151.232357096474	1088.97778435054	669.735783324736	128.660579268879	1508.81389414733	996.918703492031	139.929519851706	1963.35371364296	360.730624007596	127.61837202696	945.018575171575	702.915781236026	184.101082211157	1163.61498328998
290.39102566427	141.035529024564	580.285153593387	1412.64019363	238.94199996983	1976.12499276913	666.749715681166	141.281499058922	1265.23772119207	1024.73274175585	164.019128969705	1424.46103560655	1050.86690527851	130.279202646363	2346.18574317404	1015.10975439614	152.232706867713	1466.58166937062	641.840290167357	128.445947412335	1160.46339989752	1133.10636562189	176.130043441885	1557.01720350522	865.697829227833	141.95927654881	1535.75988294841	1516.56066010421	190.975422611894	2191.58013858934	1289.68098481551	139.775553827145	2299.47455335425	784.169457107106	151.214979589957	1088.90553179932	670.854092200858	128.67885072101	1514.54871548307	998.064854994881	139.914016245771	1970.98195208213	360.778888218155	127.62426158873	946.548615130062	703.798827011842	184.303010968054	1166.69499428262
290.603695772498	141.064502673146	581.004458334744	1412.9079912666	239.788912392343	1975.85593525974	667.559324941705	141.24878672464	1266.73964170926	1025.66464614891	164.058525197998	1426.22846181449	1051.26518515582	130.254399310921	2346.70249568299	1016.63006008601	152.241042668676	1469.26547460703	642.001803796289	128.392340469313	1160.81819284825	1133.332035992	176.077736266483	1557.13358724544	865.502487478835	141.938843073884	1536.39354384582	1516.37084799985	190.899446845591	2191.65099448541	1288.97145575051	139.815902089646	2298.91047237718	783.917371858553	151.183485885345	1088.49862404432	672.325465492514	128.669781490607	1521.2017491488	999.765190249626	139.884516599354	1980.77789685034	360.875574168836	127.625822785499	948.170894989809	704.934311681744	184.48006413834	1170.36188091307
290.822291249289	141.101880377306	581.533802453495	1412.55257431407	240.512927720764	1974.05526077022	668.344289479624	141.228867199465	1267.86817123337	1026.56371673688	164.100553154409	1427.86809634219	1051.69822441309	130.234832256759	2347.06668329677	1018.29616959898	152.252634003568	1472.25946783943	642.030782137629	128.336771985491	1160.73181086046	1133.55994402049	176.012815167644	1557.2191313452	865.254008718691	141.917596325812	1536.47705155695	1516.40125037485	190.821164366906	2191.53708772901	1288.12228766466	139.845381869784	2297.15602266313	783.651589014526	151.143560600305	1087.78068199046	674.165329829598	128.641633533025	1528.54942812329	1002.0469044888	139.845117312148	1992.35885517212	361.033994257453	127.6263642601	949.831080793427	706.335876009579	184.617745546271	1174.54131440974
291.041680222998	141.143560600305	581.883567347832	1411.5840263932	241.039322334353	1970.91964464823	669.080479240663	141.224463328309	1268.66914704597	1027.41518245508	164.143560600305	1429.42426106671	1052.20226656959	130.225340118469	2347.47902756406	1020.11711917866	152.272115513859	1475.59636831964	641.965936569677	128.287310317731	1160.32699716404	1133.90067741066	175.945504609358	1557.4954108363	865.023052006102	141.898917788843	1536.07220195	1516.75236550641	190.755089989652	2191.36860507508	1287.24494578027	139.86246862622	2294.4139954494	783.421787818574	151.101880377306	1086.82892527332	676.340095667499	128.606355025466	1536.1803743719	1004.8377513726	139.801166473127	2004.86975786956	361.261607295811	127.628928996435	951.449053323312	707.971947708348	184.707248770817	1179.02006901305
291.252357294117	141.183485885345	582.079323633653	1410.11379986878	241.326443534963	1966.84579742677	669.725441340532	141.235414964768	1269.19578173046	1028.15694219198	164.183485885345	1430.86429400238	1052.796270261	130.231420292942	2348.11780226276	1022.05673332453	152.303543973144	1479.21614715103	641.864407736183	128.25220150128	1159.77364950272	1134.43834075898	175.886640967315	1558.14060978766	864.890946527195	141.886102621199	1535.31982066297	1517.47108376263	190.714119136282	2191.25846684211	1286.47467542633	139.868385643266	2291.0608397148	783.272035552178	151.064502673146	1085.75442137517	678.757830660987	128.576852320137	1543.54993604047	1007.95401643337	139.758413156949	2017.08742242616	361.558461503209	127.637211080104	952.929310608147	709.757662257925	184.747158948861	1183.4638747885
291.4448166304	141.214979589957	582.152475452767	1408.35205165568	241.370781446676	1962.35426233817	670.228795472349	141.257813312566	1269.47958944822	1028.6933084811	164.214979589957	1432.05546316972	1053.47373555518	130.254891667886	2349.08388996464	1024.02597580614	152.345979014392	1482.93936973584	641.789031182027	128.237540353814	1159.25297837696	1135.2078655103	175.845111971123	1559.23394103745	864.929221040318	141.881540282327	1534.404222298	1518.52481963984	190.706218778524	2191.24932657958	1285.93807879236	139.86246862622	2287.56404389313	783.227535308561	151.035529024564	1084.67301576414	681.276111572149	128.564063344938	1550.0790117493	1011.12167223182	139.723863483927	2027.63346081187	361.914715329257	127.654181501782	954.181960458475	711.564324707181	184.741670837798	1187.4744226398
291.610026256441	141.232357096474	582.132244356181	1406.57094489529	241.205730644461	1957.99047809607	670.540946359156	141.283708275062	1269.51637994621	1028.91489849717	164.232357096474	1432.78301653945	1054.20134018737	130.298007707008	2350.35293516764	1025.89178885589	152.396557444281	1486.47489889394	641.793191854752	128.247814835204	1158.91041969228	1136.1805880003	175.825831774611	1560.71670694272	865.181521207571	141.8861026212	1533.506956994	1519.79796694621	190.732367870737	2191.27688905401	1285.72190400306	139.84670909268	2284.38637517875	783.285439468892	151.016400054859	1083.67550923437	683.718544167494	128.572407215573	1555.25314218015	1014.01844604571	139.702616735854	2035.22848280548	362.309831978669	127.679117130638	955.131852369418	713.239600855795	184.699091466103	1190.6532902915
291.743125528793	141.232357096474	582.041620568326	1405.05197245753	240.891936018229	1954.2140208908	670.626332942605	141.306591048095	1269.26426496911	1028.73261595494	164.232357096474	1432.79724532301	1054.91941821661	130.356279688227	2351.77249639163	1027.49933165996	152.448132152806	1489.4667754352	641.906221416156	128.281063477775	1158.82434364448	1137.26517861197	175.828805391864	1562.39613398932	865.647536716956	141.898917788843	1532.75895185869	1521.10580855397	190.78634763294	2191.1617967796	1285.84511294573	139.821879564793	2281.8784255743	783.411956303334	151.005977475148	1082.80330012863	685.898978819865	128.600303081266	1558.71578127391	1016.32448342096	139.696727174085	2038.94421559648	362.713474725143	127.709550207816	955.730744108569	714.627750210154	184.629766496108	1192.6823743132
291.843536097477	141.214979589957	581.901080462955	1404.02724777794	240.502070305221	1951.33205751772	670.475871838212	141.321162486102	1268.67018299108	1028.10878126721	164.214979589957	1431.89740281684	1055.55845514066	130.422763246668	2353.09158264726	1028.71238323028	152.492881205869	1491.57379986997	642.130010880158	128.330893626634	1158.99179716819	1138.33489683278	175.849510665335	1563.98393020853	866.280763751372	141.917596325812	1532.20592820712	1522.22889443943	190.856439399695	2190.63652820743	1286.25458255642	139.791953882004	2280.19713345458	783.549338418541	151.001327222897	1082.03454612905	687.650914651164	128.642416581547	1560.31988510647	1017.78044499689	139.706398064032	2038.3744197786	363.087816719845	127.742171569807	955.958374989147	715.597407249215	184.545087468296	1193.37530924717
291.913119796848	141.183485885345	581.726205868328	1403.61881643568	240.106964380413	1949.45972048419	670.107149285422	141.325291547692	1267.69649282728	1027.06822277489	164.183485885345	1430.00077809071	1056.05658328889	130.488051875625	2354.02953422908	1029.45401793439	152.525435142007	1492.55612642288	642.438435170076	128.388296887365	1159.33959665837	1139.26015551828	175.881523126872	1565.17235871443	866.99587676667	141.938843073884	1531.80467720212	1522.96511690482	190.929613327306	2189.41305647119	1286.83701307251	139.760321050027	2279.28689251409	783.632862015678	151	1081.29700765482	688.856522070219	128.690854515393	1560.1431568043	1018.2382025211	139.727984817372	2033.705348148	363.397209744576	127.773258189581	955.823257001123	716.068457684887	184.454912531704	1192.71569140531
291.957166277391	141.143560600305	581.53535797134	1403.83229442097	239.763279967335	1948.55095300891	669.567892501044	141.318614905221	1266.35918577814	1025.70810610575	164.143560600305	1427.19880768525	1056.38633066575	130.541624552991	2354.36509986269	1029.74089613116	152.541712466369	1492.35864468635	642.792373117756	128.440516149389	1159.75829542056	1139.95377324212	175.916391074825	1565.71839877478	867.692139338344	141.95927654881	1531.44268639551	1523.17909570288	190.992800118411	2187.26085314678	1287.45648040042	139.73202839932	2278.90359246429	783.612245702809	151	1080.4889572512	689.467045099254	128.737179478046	1558.46064787881	1017.68549183277	139.754813280202	2025.65719624681	363.613629957831	127.798336404162	955.362563824071	716.024295744413	184.368906280995	1190.8554166089
291.982272722244	141.101880377306	581.351010792549	1404.56252753309	239.511349736063	1948.45040193008	668.923479077691	141.302743769168	1264.74108669012	1024.17360544308	164.101880377306	1423.75620109429	1056.55772385368	130.574300790914	2354.00121500959	1029.68214186839	152.543068944163	1491.14118617887	643.148796955962	128.476999907935	1160.14061902015	1140.3870138149	175.947526746202	1565.51126596898	868.269038384517	141.976220778044	1530.98244926718	1522.82577653033	191.037644903046	2184.08283271378	1287.98130879151	139.709545470215	2278.70111830662	783.462940988908	151	1079.51634892555	689.507778871968	128.775987104428	1555.67316479431	1016.24480589419	139.780637356678	2015.30666491773	363.723043162777	127.816710555618	954.630391613402	715.514307569494	184.296258281646	1188.07553690568
291.994022524852	141.064502673146	581.195444783983	1405.64059105322	239.375093833802	1948.96060468265	668.247899031234	141.279482263103	1262.98671357919	1022.63261261558	164.064502673146	1420.05926719182	1056.6229461026	130.582213614417	2353.00512261483	1029.4589010147	152.535988982996	1489.25609394647	643.475434318947	128.489815075579	1160.41976839965	1140.59842292843	175.971570525793	1564.59975146786	868.651907749744	141.988250197392	1530.30760583768	1521.96502048954	191.060902934342	2179.95134646497	1288.32376471848	139.694194700201	2278.32977101145	783.197412324224	151	1078.32065792102	689.073191039199	128.803872670298	1552.2229514425	1014.14614356288	139.799315893647	2003.85244433188	363.729069482012	127.826324669357	953.691501625847	714.646015153421	184.245252136697	1184.72368927963
291.998672777103	141.035529024564	581.088371323087	1406.88141120338	239.366689778224	1949.88949411788	667.606845572087	141.250508614521	1261.26798854062	1021.23626141859	164.035529024564	1416.5217511145	1056.66310248399	130.565810859784	2351.57710842828	1029.27860709128	152.52851369015	1487.15998511708	643.757733024998	128.476572192874	1160.57827829007	1140.67453183027	175.986922974495	1563.16585287874	868.802700712235	141.995349747749	1529.36813764651	1520.73755139638	191.064676396433	2175.11358361845	1288.4531305713	139.684780864872	2277.54163357455	782.858064755064	151	1076.90070026319	688.30510569538	128.82090481291	1548.51359409169	1011.67573912169	139.807553732886	1992.38127001528	363.651164299416	127.828004363267	952.613093575437	713.559616095766	184.224411576933	1181.14703568423
292	141.016400054859	581.040392083974	1408.13392322697	239.491452928563	1951.08614494259	667.050045014646	141.21726344672	1259.7464416613	1020.08840653301	164.015072831962	1413.48732146161	1056.76415232106	130.530888298008	2349.9902507901	1029.3138945637	152.529837784561	1485.29535861007	643.998622081923	128.44103734005	1160.64363703841	1140.71479411621	175.995349747749	1561.46009992806	868.724433759108	141.998672777103	1528.19227507474	1519.32839015197	191.055179450969	2169.93191751731	1288.39785266513	139.679121868239	2276.24274554508	782.503405631419	151	1075.31006317254	687.35984993095	128.828979115151	1544.84792717465	1009.11559099357	139.805721083855	1981.68233493429	363.518147599417	127.821879564793	951.455509978673	712.401364267923	184.240277975385	1177.62833363943
292	141.005977475148	581.048089411176	1409.2970652534	239.748386658095	1952.43747348921	666.59970406239	141.181031780064	1258.52807007663	1019.22461429744	164.001327222897	1411.14531014966	1056.9930770057	130.487360436447	2348.50333349597	1029.65649452797	152.546668682967	1483.97175675691	644.214352506744	128.392579609498	1160.6652911246	1140.79683517119	175.998672777103	1559.71854128919	868.456079577226	142	1526.87704287305	1517.9183375158	191.038069005396	2164.79698618245	1288.22576978894	139.67401644565	2274.49936899201	782.189837760824	151	1073.64029918365	686.382591670073	128.831783387579	1541.43306484671	1006.69409273856	139.796516220876	1972.23340691744	363.363373676363	127.808004165623	950.276899454032	711.296453370675	184.297318305657	1174.36474554223
292	141.001327222897	581.094594685808	1410.32134370492	240.130184879652	1953.84876240983	666.254583858083	141.143132885243	1257.64249549993	1018.61721930981	163.989577420289	1409.51053858531	1057.38014151313	130.447198049048	2347.29387929688	1030.30162900892	152.581624544297	1483.31617091007	644.423642737502	128.344338182257	1160.68072159388	1140.95222141674	176	1558.09943789859	868.058319068681	142	1525.55013047962	1516.65316135659	191.019128969705	2160.04476231321	1288.01505867297	139.667525726174	2272.48045966637	781.95642356131	151	1071.99217899959	685.490215785868	128.833865428726	1538.39636445014	1004.56947509231	139.786059582634	1964.23414265997	363.217096579066	127.788491725286	949.136891261245	710.339066574368	184.396808736282	1171.47666526622
292	141	581.154710528818	1411.19242433038	240.620424195523	1955.2281855184	665.994676653171	141.107510119041	1257.04682247915	1018.1916173788	163.976220778044	1408.44714658081	1057.90954111427	130.420476552188	2346.4142390273	1031.14900725709	152.63276597554	1483.24343668962	644.638034733276	128.308971761321	1160.69563815854	1141.15615262144	176	1556.64387470927	867.59586682488	142	1524.32241720371	1515.61160855828	191	2155.87144705901	1287.82707010606	139.659767895618	2270.37403447814	781.814225806297	151	1070.44011469066	684.757420437284	128.83643363983	1535.79140966803	1002.81815903742	139.780370157792	1957.65985519584	363.101179635099	127.764854134003	948.085143265237	709.581239249983	184.53607711757	1169.01133224935
292	141	581.201450788679	1411.90611804344	241.194123123307	1956.46659755583	665.792519875748	141.077556980975	1256.64245700258	1017.85569623803	163.95927654881	1407.72296300893	1058.52448284176	130.415940405761	2345.80493573276	1032.04051375259	152.69543400972	1483.51696038917	644.856755442669	128.29739277471	1160.68434764787	1141.33987198635	176	1555.2894709487	867.130291826596	142	1523.25878176713	1514.81008794033	190.980871030295	2152.30967912368	1287.69439424082	139.65304353395	2268.32490001779	781.749678508249	151	1069.01641030594	684.217051609654	128.840728917759	1533.62642106903	1001.44983304613	139.783693187146	1952.36692218531	363.027640818622	127.739196273865	947.157917702281	709.040001498281	184.707266988105	1166.97123088
292	141.001327222897	581.215494191024	1412.44798671661	241.816514114655	1957.44608648294	665.618534660266	141.057123506049	1256.31039266373	1017.52315956629	163.938843073884	1407.08873057154	1059.14385098771	130.435163892099	2345.3187112254	1032.8072112376	152.76271363796	1483.8234521737	645.069447261149	128.315376951529	1160.5922292112	1141.41652678764	176	1553.90161205445	866.706743720162	142	1522.35598762752	1514.20765451032	190.960603771707	2149.22847904044	1287.61451620394	139.650143482056	2266.37782759949	781.729032226164	151	1067.70130161695	683.867198801939	128.844684034866	1531.85463540243	1000.42817110902	139.799136608139	1948.12942164918	362.997547794604	127.714628175127	946.366280145698	708.702243305616	184.90024501174	1165.31996647284
292	141.004650252251	581.186479961251	1412.79164345843	242.447336686431	1958.05413749272	665.449912508214	141.048885666809	1255.93917473774	1017.13338571941	163.917596325812	1406.3345981372	1059.67983592927	130.475441648153	2344.78177261984	1033.3123025362	152.828009925489	1483.86850941524	645.256743640049	128.361544269352	1160.36443915577	1141.3054752437	176	1552.33410907629	866.356449117762	142	1521.55058550488	1513.73727675783	190.938843073884	2146.38879297388	1287.570431509	139.655508724679	2264.48631948766	781.71821645774	151	1066.43522531013	683.676315805367	128.845923344385	1530.37186231096	999.686211841808	139.824945695083	1944.66458702121	363.002458004831	127.694648261424	945.685792934225	708.533914483306	185.101082211157	1163.98616375557
292	141.013077025505	581.114422546629	1412.8990877673	243.046665553594	1958.2040986432	665.26771901617	141.053800476695	1255.44096034857	1016.65214356232	163.90024501174	1405.3202577774	1060.05626591227	130.530885598234	2344.03621424117	1033.47560620941	152.885042597189	1483.44085364106	645.396506964542	128.42847616418	1159.96181415262	1140.9526303208	176	1550.47199514823	866.097631906077	142	1520.75347096938	1513.32757821457	190.917596325812	2143.52269896542	1287.54363056564	139.672162203833	2262.56500298387	781.691232092956	151	1065.15300383238	683.59674293439	128.840467059898	1529.03691734066	999.146554508982	139.858194337653	1941.68007627732	363.028551446117	127.680327119226	945.065752306576	708.490671444295	185.297383264146	1162.87893398102
292	141.028429474207	581.009558611386	1412.73952507227	243.580260048773	1957.86455025043	665.060002651511	141.070457430618	1254.76624295822	1016.07360775213	163.89075287345	1403.99618146813	1060.22629411608	130.592226409517	2342.96882496245	1033.28874585906	152.930847074603	1482.45122275766	645.471814799502	128.505172483078	1159.36917500565	1140.34696285135	176	1548.26048700224	865.937141439118	142	1519.87285872714	1512.92011379294	190.898917788843	2140.40196116248	1287.5219607479	139.70183572516	2260.52867600807	781.637598213073	151	1063.80478442832	683.573468803837	128.826682702592	1527.69575649428	998.734516089607	139.893817103856	1938.91336996713	363.060358759967	127.672860038751	944.440253422045	708.525215179939	185.478327130832	1161.90042543857
292	141.052473253798	580.885171424731	1412.30266415165	244.026136703184	1957.07473500046	664.820034763947	141.09680792259	1253.90757677413	1015.41413956431	163.894617307832	1402.39725842348	1060.180935975	130.651880489565	2341.53657501224	1032.8082736543	152.963143752539	1480.94042246258	645.472988361856	128.577646537944	1158.59943825908	1139.51986216779	176	1545.72184047391	865.871187067857	142	1518.85068258758	1512.48382710117	190.887429844096	2136.90256033911	1287.50338472499	139.742969735956	2258.33808255694	781.563958932463	151.001327222897	1062.37814022286	683.560243876476	128.803966145897	1526.22045232348	998.395752478412	139.927093271276	1936.17788050611	363.085467904594	127.671390230129	943.747177037105	708.600249430004	185.637598213073	1160.96812155748
292	141.084936148072	580.754269105827	1411.60952733392	244.376526829642	1955.92940835526	664.546374059475	141.129511685363	1252.88950959479	1014.70547449729	163.915859318303	1400.62154339763	1059.94309542386	130.702100886219	2339.77345682955	1032.13047933481	152.983599945141	1479.0599740171	645.394932605503	128.634275183719	1157.68712774136	1138.53234778601	176.001327222897	1542.94905272914	865.887291206714	142	1517.68320159668	1512.0161520466	190.886190534578	2133.04110697113	1287.48987544996	139.792734892699	2256.03275991826	781.487245572937	151.005977475148	1060.90872501859	683.524362380899	128.773258189581	1524.53353254637	998.099737954751	139.954626296559	1933.39075716	363.094960112457	127.673477008876	942.940505418995	708.691904443557	185.774209448794	1160.02737841845
292	141.123127125378	580.629839908964	1410.71722249143	244.638518047885	1954.57042466446	664.248133133251	141.166370632599	1251.77025439462	1013.99576922072	163.957368517789	1398.81459678354	1059.56654727318	130.736738269034	2337.78328096938	1031.37190404101	152.994022524852	1477.03161115097	645.240472676964	128.666463268427	1156.68178767359	1137.46694521121	176.005977475148	1540.08930015724	865.965214690434	142	1516.41997959564	1511.53854801027	190.899179646705	2128.96561684581	1287.48262714907	139.844689597087	2253.71508426075	781.429418634638	151.017727277756	1059.47030935434	683.455191071446	128.739196273865	1522.62662029412	997.847342617815	139.974893555147	1930.58507394559	363.085467904594	127.678039347749	942.003331843394	708.793751585218	185.890814924649	1159.06438836642
292	141.162239137273	580.519029547817	1409.69962198864	244.830253924285	1953.14042625423	663.943763179953	141.203395865745	1250.62677031966	1013.3404716058	164.02025975164	1397.14025292768	1059.12290108143	130.752609405088	2335.71407635038	1030.64603403705	152.998672777103	1475.09855304469	645.016265427882	128.673650732163	1155.63373987742	1136.41222136015	176.017727277756	1537.31338155945	866.07931299503	142	1515.15998708402	1511.09127374476	190.928674485947	2124.93062335934	1287.47736108567	139.893469370443	2251.54021926636	781.408569945388	151.041506499712	1058.16193995053	683.364576226676	128.707551342446	1520.55880211766	997.668159461483	139.988250197392	1927.89380778739	363.05903153707	127.682878174875	940.948663207499	708.91865467652	185.992695301956	1158.10341694632
292	141.196301052989	580.423654888417	1408.63488942337	244.973640801303	1951.74866177318	663.65944664149	141.237024504179	1249.54161407662	1012.79830715885	164.102149476077	1395.75167036975	1058.68186366908	130.74658294791	2333.73408793121	1030.0398154165	153	1473.47833333643	644.727920035382	128.658984847096	1154.58784100201	1135.44188450935	176.041506499712	1534.78769234786	866.206289837002	142	1514.02056012263	1510.72859080554	190.976047054757	2121.23476156234	1287.47036695644	139.934170103957	2249.66896471848	781.440406095984	151.082229950902	1057.08284773801	683.281351583092	128.68515131596	1518.4458003804	997.609370426757	139.995349747749	1925.5207019072	363.022573970969	127.686888323468	939.820441593449	709.090413072952	186.08415309955	1157.20422099945
292	141.21954192883	580.341440434229	1407.58407046386	245.089925427011	1950.45896300176	663.424196600232	141.264648571327	1248.5935681324	1012.41975854367	164.199095384734	1394.77398829397	1058.30308753999	130.717884108894	2332.00873908184	1029.60575889874	153	1472.33306892453	644.382291512212	128.630570224479	1153.58351597757	1134.61447106736	176.082229950902	1532.6495171865	866.327133105617	142	1513.1126560286	1510.50632062301	191.041506499712	2118.15965972148	1287.45992270547	139.964470975436	2248.23513885348	781.533574442604	151.143386877018	1056.31536881565	683.242538294636	128.678048637117	1516.43795921479	997.720519849954	139.998672777103	1923.69202409588	362.983403504179	127.68982406469	938.686206288512	709.336256190284	186.166556773739	1156.44484180303
292	141.227794757601	580.267345609972	1406.58795645019	245.194986247946	1949.28420098157	663.265777005526	141.283354979428	1247.84584111083	1012.24358285392	164.304158905443	1394.28471142488	1058.02543876136	130.668476985386	2330.65942014811	1029.36235671468	153.001327222897	1471.7370003694	643.987400003658	128.59783553166	1152.64737694125	1133.96426663559	176.143386877018	1530.97965298147	866.431634136224	141.998672777103	1512.50937847582	1510.47126163635	191.122582951003	2115.90551422915	1287.448638389	139.982272722244	2247.30549245168	781.6924511239	151.224463328309	1055.90368620953	683.283265472972	128.689801568211	1514.68628389801	998.037852223214	140	1922.59541433775	362.951391042641	127.691302514394	937.624114502637	709.677687983431	186.238665336314	1155.90177025178
292	141.21954192883	580.194268754265	1405.66191843527	245.295788842362	1948.19729467143	663.203017929483	141.292448657554	1247.33410878733	1012.28458849707	164.409803455472	1394.29822955435	1057.86758070271	130.603805396128	2329.75387773943	1029.30027903521	153.005977475148	1471.6790424874	643.55461067992	128.568547518792	1151.79989448842	1133.50665522134	176.225790551206	1529.79626845778	866.516958241052	141.995349747749	1512.23313055589	1510.6448733599	191.216039613968	2114.55342164546	1287.44334700398	139.989372272602	2246.86621407958	781.915027341858	151.322222510112	1055.84720991106	683.423406163127	128.717973922157	1513.30835991832	998.564370408057	140	1922.32519792189	362.933661065112	127.690848953171	936.707285815427	710.117780148836	186.296056041249	1155.62497487637
292	141.196301052989	580.115286514954	1404.8041397339	245.391414769032	1947.14729165704	663.241570398384	141.292297430747	1247.05873460083	1012.52955604089	164.509293816523	1394.75927083095	1057.82531363399	130.530344123633	2329.28824319603	1029.38730057371	153.016400054859	1472.06691457101	643.10065444647	128.547192177493	1151.05034049309	1133.23493219689	176.325545539466	1529.05045543913	866.585638957818	141.988250197392	1512.25452995456	1511.01487358931	191.314861101894	2114.05056543948	1287.45516186978	139.986922974495	2246.83499880843	782.194956779342	151.427693115658	1056.10479377586	683.658491349827	128.758325243571	1512.34683768065	999.262219774493	140	1922.83093179177	362.932686313228	127.690068767097	935.980227504511	710.636620158892	186.33343930763	1155.60980812642
291.998672777103	141.162239137273	580.020646177381	1403.99263272302	245.474368179817	1946.06392456939	663.368801060559	141.285371824873	1246.97724544953	1012.92998187793	164.59782792098	1395.53598170639	1057.87808615519	130.458409505541	2329.18538492902	1029.57811049645	153.036856247461	1472.74057724522	642.647121240107	128.536250840857	1150.39938702599	1133.12243760508	176.434792666016	1528.62937556642	866.6420466985	141.976220778044	1512.49077568039	1511.52948867898	191.410925530682	2114.20842817729	1287.49497444705	139.974893555147	2247.06970249495	782.522223503267	151.53080038463	1056.59818476907	683.959090674609	128.802231838163	1511.74667365985	1000.05317073855	140	1923.90120747396	362.945932324419	127.689550010172	935.443663007477	711.191188217086	186.346254475274	1155.78472437836
291.994022524852	141.123127125378	579.898961909593	1403.18599352523	245.528835340187	1944.85407225542	663.553417421052	141.273858033964	1247.00048414898	1013.40370021879	164.673127237637	1396.42702486815	1057.99129031473	130.398418275692	2329.28904631148	1029.81529040549	153.069152925397	1473.489338601	642.21558569839	128.535556530334	1149.82556365208	1133.12122685749	176.541502581081	1528.36313086658	866.685754482622	141.95927654881	1512.82277902735	1512.09303445033	191.494889568121	2114.73317018646	1287.56650054714	139.954626296559	2247.40327437537	782.878009046373	151.620653983839	1057.22643262308	684.271143999531	128.841343850057	1511.35814977277	1000.82498279841	140	1925.1884940034	362.964921408173	127.69205976638	935.053421558802	711.718666827102	186.33343930763	1156.016783738
291.982272722244	141.084936148072	579.735413953426	1402.32839169626	245.537435836728	1943.41075612392	663.750054263153	141.26104286632	1247.00520134432	1013.84427662681	164.732956940856	1397.18811385229	1058.11993695477	130.359426490986	2329.38821728068	1030.03278252553	153.114957402811	1474.07964213105	641.822218612282	128.543441828987	1149.28532105288	1133.1630529939	176.631620737925	1528.04557620493	866.706751402702	141.938843073884	1513.10899507109	1512.57923240236	191.557648644165	2115.26552744815	1287.65965404596	139.927093271276	2247.65855615361	783.233401957576	151.689273300721	1057.87483600862	684.526874918911	128.86836292559	1510.96070746527	1001.45240680897	140	1926.26807305117	362.977172037257	127.70008426197	934.725557830863	712.147867929438	186.297383264145	1156.13232298246
291.959820723185	141.052473253798	579.517396659916	1401.35339142576	245.481644360751	1941.62320219069	663.907104597272	141.250643004285	1246.85738558538	1014.14104102194	164.778788943121	1397.57577823394	1058.21974776114	130.347046279313	2329.25726525508	1030.17179083984	153.173317297408	1474.29497236803	641.476171869201	128.558685684462	1148.71799798014	1133.17686346613	176.691979497892	1527.47128943087	866.689757554386	141.917596325812	1513.19919972333	1512.85211892917	191.590897286735	2115.42458308245	1287.75310815509	139.893817103856	2247.66239632496	783.554105573835	151.733485997604	1058.42542066533	684.660337499881	128.880392344938	1510.29878386549	1001.82103096636	140	1926.70770705696	362.970510501783	127.715169649728	934.351112250938	712.414165225125	186.244642811461	1155.94769069296
291.922420301349	141.028429474207	579.235866670948	1400.19755469059	245.34579268088	1939.39659989777	663.976730758652	141.24553445321	1246.44038075595	1014.20123541754	164.811339750773	1397.39609910008	1058.25592279133	130.363729009824	2328.69974876408	1030.19366104744	153.241936614291	1473.98008166379	641.180012511522	128.580826378148	1148.05544525419	1133.10273608337	176.713226245964	1526.47269038566	866.617102587676	141.898917788843	1512.955626287	1512.79376536264	191.590897286735	2114.86745576084	1287.81949191927	139.856867114757	2247.25915492296	783.804962770869	151.755530911825	1058.76724943997	684.62041512213	128.877417048997	1509.13742352156	1001.84770381913	140	1926.15743237637	362.934349389465	127.73921342932	933.824305541362	712.469723547067	186.184284051494	1155.30778767802
291.86836292559	141.013077025505	578.889516026492	1398.81573709671	245.121495430967	1936.67656895801	663.928273494184	141.248489952446	1245.68429816368	1013.97370030094	164.83256670214	1396.54993380573	1058.21239867597	130.403740170416	2327.59710480041	1030.0945445516	153.317643015785	1473.07814764617	640.931357097785	128.607659530687	1147.23961650513	1132.90955748286	176.691979497892	1524.95620558626	866.4745647884	141.886102621199	1512.26875852537	1512.33373572476	191.557648644165	2113.33484115372	1287.83960247481	139.820295442833	2246.32526704677	783.961510667272	151.762192447299	1058.80857945986	684.382731589797	128.862061541382	1507.29798747504	1001.49841375834	140	1924.39963640058	362.864327605638	127.770616161641	933.057029140581	712.293196940851	186.125659599262	1154.107889586
291.79798867075	141.004650252251	578.484045099803	1397.18861398821	244.80904657577	1933.44926588541	663.750897087834	141.26025955176	1244.57228757411	1013.45345037937	164.845117312148	1395.04092367073	1058.09667099175	130.45814764768	2325.93581767967	1029.90958148885	153.395663498667	1471.65095543723	640.725450260819	128.639108669821	1146.23931417781	1132.6006697409	176.631620737925	1522.92151602153	866.264362918791	141.881540282327	1511.08276140698	1511.47304672324	191.494889568121	2110.7039940465	1287.82153076331	139.78738680553	2244.81561843529	784.022263304965	151.762730793415	1058.50201370293	683.953999623498	128.840728917759	1504.68876148736	1000.79357484928	140	1921.38204517759	362.762459646186	127.807213610154	931.995414132054	711.89476584603	186.074925252857	1152.31244500232
291.713850688827	141.001327222897	578.029168370962	1395.32803156662	244.41853124854	1929.74756091648	663.453103610365	141.279744120964	1243.13800177119	1012.67960529626	164.850461924548	1392.96361670517	1057.9355934121	130.515183378293	2323.79000420443	1029.69969991815	153.470848709501	1469.85048311082	640.558662542857	128.673139655491	1145.04666675208	1132.20676332163	176.541502581081	1520.43983067914	866.00148755687	141.8861026212	1509.3969046879	1510.27763183932	191.409598307785	2106.98555831121	1287.79732889772	139.75991396519	2242.76230183181	784.006476835808	151.766227767251	1057.84768776872	683.372207342084	128.819056133314	1501.32219668188	999.801960392681	140	1917.22083518798	362.636983280774	127.84336237419	930.634006076585	711.311646341719	186.035529024564	1149.95993640231
291.620386784953	141	577.533747450299	1393.28144803075	243.969183278886	1925.64290527572	663.060154481742	141.302831682546	1241.44510150568	1011.72438754467	164.850461924548	1390.46681146304	1057.76081283144	130.562386809794	2321.28181493254	1029.5259510816	153.536940242208	1467.86828355614	640.422029921865	128.706895762022	1143.67080784007	1131.76454935653	176.434792666016	1517.61593043441	865.711247174573	141.898917788843	1507.26227767199	1508.86209899848	191.310210849643	2102.30947770455	1287.81398866344	139.739646706602	2240.27325005789	783.950355127163	151.779130848273	1056.89117248302	682.692472507073	128.803698947011	1497.30630760922	998.620829191616	140	1912.16038849514	362.499272621486	127.874340400738	929.012646176301	710.598287605876	186.005977475148	1147.14766974616
291.523173815352	141	577.004224298809	1391.123529561	243.488339925931	1921.23981902239	662.605317935544	141.324504466991	1239.56896798731	1010.67405781797	164.846444535045	1387.71621195497	1057.60067449408	130.591159144597	2318.54694557028	1029.43213752504	153.587311865669	1465.88578915334	640.302745806994	128.736194094659	1142.13016208929	1131.30248855776	176.325545539466	1514.55525256995	865.422039156222	141.916269102915	1504.77274828484	1507.3568586802	191.202962588463	2096.8895562898	1287.91180185342	139.724902656517	2237.50159791105	783.889727080857	151.802371724114	1055.7098475758	681.975646118324	128.797835577687	1492.82746038495	997.352062386505	140	1906.53005028055	362.361618738405	127.894773875664	927.210208688032	709.813204740653	185.982198253191	1144.01700110664
291.42795497352	141	576.443931844283	1388.9524112397	243.008452635433	1916.67304635746	662.126086918415	141.338106715335	1237.58434403602	1009.61716285204	164.838544177287	1384.86886292313	1057.47046045261	130.59732519462	2315.69291860716	1029.43034172797	153.617325392264	1464.03137413815	640.182975163028	128.756858134722	1140.44085019648	1130.82883375442	176.225790551206	1511.33127135165	865.153600930885	141.934192821633	1502.04086399345	1505.87094249445	191.0928262539	2090.97075283897	1288.1011797641	139.714112546688	2234.59272140815	783.848109240324	151.833110610476	1054.38688593535	681.269786621604	128.802371724114	1488.10359159269	996.07669136366	140	1900.66639298003	362.23051527251	127.901986826423	925.324278123327	709.003816793582	185.95927654881	1140.71698568157
291.339687930007	141.001327222897	575.855033956769	1386.87160446083	242.564444540578	1912.09937448831	661.657347963304	141.341168245967	1235.56068720269	1008.63246568727	164.829067028529	1382.05756878806	1057.37210063235	130.581775599534	2312.79024123285	1029.50542047953	153.623455822532	1462.37060402123	640.043825940827	128.762807379598	1138.61920490798	1130.33003655878	176.142059654121	1507.98611110308	864.912633361825	141.947526746202	1499.18709314007	1504.47392908986	190.983055770766	2084.79639089675	1288.35344380005	139.704638872699	2231.65557761532	783.829189897941	151.865123072014	1052.99552154599	680.603710090237	128.814405881063	1483.34763235829	994.846429753049	140	1894.86725236934	362.108979927664	127.896546018702	923.450645551794	708.20058485212	185.932865598736	1137.38294348348
291.260519371794	141.004650252251	575.23575459488	1384.97060248926	242.187803714183	1907.66115246479	661.226298584381	141.331160825521	1233.54998098857	1007.77367574484	164.818968219936	1379.37396223813	1057.29222193522	130.548690044816	2309.88705930827	1029.61960699479	153.605992836373	1460.92074850452	639.867242661625	128.750880659575	1136.68892944606	1129.77629535977	176.076252475754	1504.54426604132	864.693294796456	141.952441556088	1496.32657026661	1503.19069302072	190.873383628929	2078.5874000265	1288.60960121955	139.693656354086	2228.74812422548	783.818799658178	151.889957407075	1051.59019021753	679.980356429228	128.828979115151	1478.72878852623	993.676778635156	140	1889.34881532527	361.991573226746	127.881190511088	921.662701489963	707.413926688802	185.901196270953	1134.11364099406
291.191477077452	141.011749802608	574.586664281202	1383.30865858562	241.903209425236	1903.47674720487	660.849613651499	141.309914077449	1231.59365177629	1007.06773403317	164.80920941661	1376.87444312023	1057.20947910886	130.50614167274	2307.01560774694	1029.72399947555	153.567801859067	1459.6643015176	639.64078370816	128.7197940398	1134.68597204546	1129.12788485214	176.023779221956	1501.02567764332	864.481826538404	141.947526746202	1493.55388483266	1502.01068107751	190.764040860857	2072.51852009605	1288.79901554822	139.679528953077	2225.87735350222	783.795084462998	151.900825819865	1050.20076921169	679.382151467565	128.839609542323	1474.35339869833	992.556957580143	140	1884.24036348768	361.869690148487	127.85966895345	920.004702103338	706.638637557234	185.862061541382	1130.96954904246
291.13083890826	141.023779221956	573.907306555223	1381.90212602821	241.722926967234	1899.60646112626	660.532018280053	141.280809486	1229.71503588724	1006.51081036886	164.800114059796	1374.57508842522	1057.0973746439	130.461037399751	2304.20645805872	1029.77000739014	153.513689939057	1458.56856140185	639.359617265023	128.672693960354	1132.65808329166	1128.3491606529	175.976220778044	1497.45877378731	864.256731016413	141.934192821633	1490.94192426894	1500.89662896909	190.65471055853	2066.72218361913	1288.85283473614	139.662089725627	2223.02686033183	783.730563283851	151.892686321921	1048.84436941725	678.779033424331	128.841343850058	1470.27036500035	991.461999733781	140	1879.59653356779	361.733485997604	127.836166578886	918.493613422561	705.86259059813	185.815622472906	1127.97984350185
291.076351729988	141.04072345119	573.200534931034	1380.72745445307	241.643779177187	1896.04998906442	660.269073299288	141.249315781388	1227.92241359027	1006.07555180851	164.788089447622	1372.4593109594	1056.92937601741	130.419523393091	2301.48742693697	1029.71588786307	153.449453813482	1457.58997085345	639.025888244806	128.613287234595	1130.65805632636	1127.41517205901	175.923747524246	1493.88158756877	864.002279888473	141.914941880018	1488.5293836206	1499.81030111592	190.545175381674	2061.27642481447	1288.73167181456	139.641981266437	2220.1710515158	783.608679809684	151.863012800595	1047.52415611223	678.139338901999	128.832312444327	1466.48469143473	990.365935219403	140	1875.42006381052	361.576441286956	127.813195892475	917.12861145345	705.073723664207	185.761932627265	1125.15611238612
291.025083727177	141.061156926116	572.472005066775	1379.72611394454	241.649274795197	1892.76079376864	660.047595646947	141.22111758128	1226.21421579541	1005.71653407566	164.77166390574	1370.48997416769	1056.6855472728	130.385953209554	2298.89510580814	1029.53280096378	153.382174185241	1456.68502306314	638.648661521619	128.548978095123	1128.7412146215	1126.32352666071	175.857940345879	1490.34657093905	863.710520961731	141.894267536593	1486.32924155335	1498.72557938329	190.43744711181	2056.21544730527	1288.43110240855	139.620474698331	2217.30346199354	783.424895145084	151.812037585691	1046.24264767712	677.438830399736	128.814388725609	1462.98205081228	989.249654759284	140	1871.69079676087	361.395923456643	127.792734892699	915.904705906487	704.26650524688	185.701035521183	1122.50595811467
290.974916272823	141.082403674188	571.734563177069	1378.82856700673	241.712463452558	1889.67033653543	659.853914536491	141.200684106353	1224.58811402544	1005.39041913191	164.747365996432	1368.62887852874	1056.36030303915	130.361689496329	2296.45751629875	1029.21604663158	153.318445989109	1455.80917594087	638.247291695034	128.487878152339	1126.95138978083	1125.10354988854	175.774209448794	1486.91073902256	863.386996753515	141.873025595694	1484.32861630755	1497.63511350728	190.331173243374	2051.53206602502	1287.98280927406	139.598540211578	2214.44478694187	783.189653873003	151.741388521285	1045.00187429568	676.669370457427	128.792734892699	1459.74025259991	988.109127288179	140	1868.37169290437	361.196301052989	127.774463440568	914.815848226775	703.446852432766	185.633201952597	1120.03682824677
290.923648270012	141.101082211157	571.002030941986	1377.9568920513	241.799315893647	1886.70165418541	659.671700760506	141.190691329156	1223.0399358726	1005.05232524814	164.715177911724	1366.83588874099	1055.96372827179	130.346337047627	2294.20354185455	1028.78073515841	153.264383806176	1454.93065947843	637.842754297524	128.436736721096	1125.32319788012	1123.80954639574	175.673127237637	1483.63684261137	863.047214121041	141.85311080812	1482.50042384832	1496.55250236249	190.228854781612	2047.19298956183	1287.44789412654	139.57844674192	2211.65159409627	782.92640326345	151.657076954018	1043.81096729295	675.840644938142	128.773270607435	1456.73932454083	986.957302827761	140	1865.42031000275	360.987184832356	127.759138516716	913.859029124214	702.630942081125	185.559229858837	1117.75783041071
290.86916109174	141.115224601697	570.287633971385	1377.04880242144	241.877054859904	1883.78810639459	659.487445205322	141.191477077452	1221.56128650331	1004.66961022988	164.676986934418	1365.07430795147	1055.51187092543	130.33680298511	2292.14750783123	1028.24925644767	153.223141667634	1454.02393819819	637.455143904221	128.40021276837	1123.87114706431	1122.50290106848	175.559229858837	1480.57644297699	862.714385101181	141.833629367401	1480.81679826546	1495.50307420649	190.13083890826	2043.15396285704	1286.90093160512	139.560904815146	2209.02000344022	782.664614431842	151.565207333984	1042.68998854745	674.979545845225	128.762992651276	1453.95718397728	985.822133008155	140	1862.78338901581	360.78045807117	127.746663354341	913.026391116619	701.84460395875	185.480695426204	1115.67015787595
290.809850145445	141.123109969924	569.600469159662	1376.06298696013	241.918564266905	1880.87913292427	659.290919635449	141.200666950899	1220.13846026638	1004.22232486653	164.637600112957	1363.30718337657	1055.02388256682	130.329936992768	2290.28307614768	1027.64309561785	153.196127329702	1453.0673722674	637.096057639699	128.381738604094	1122.58990916576	1121.2373028417	175.440770141163	1477.75994530512	862.406042573489	141.813981640771	1479.24805328542	1494.50545422221	190.038974025828	2039.36062611706	1286.40134554992	139.546528797016	2206.6482953459	782.427975815623	151.475874925436	1041.66114651556	674.124870943677	128.766315680629	1451.36695311623	984.744488079591	140	1860.39776298171	360.588719357054	127.737461966131	912.302689741965	701.117973633717	185.400046689974	1113.76750676238
290.744130880457	141.125647181409	568.944498677798	1374.9875610475	241.905753836862	1877.94852059385	659.077607391122	141.214028330745	1218.75342253678	1003.71020621127	164.603792326958	1361.50396522496	1054.5124014644	130.321510219514	2288.5804343381	1026.97557368354	153.179966415029	1452.04297436978	636.763259712219	128.379175200164	1121.45157426758	1120.04333567612	175.326872762363	1475.18866571076	862.129686278133	141.794469200433	1477.76555551412	1493.56404719691	189.955757078494	2035.75631713248	1285.98126718477	139.537985148591	2204.60859833835	782.227682296255	151.399872966687	1040.73893632323	673.315495055321	128.785020410043	1448.93008720307	983.764205412209	140	1858.19063398135	360.421917880909	127.732547156245	911.66284849222	700.477138266842	185.320471046923	1112.02900341426
290.672061872601	141.124861433113	568.320484850387	1373.84563470609	241.834741932047	1875.00748544412	658.852671450201	141.227270867166	1217.39242120611	1003.15769202818	164.581624544297	1359.65594676317	1053.98468969945	130.3097007338	2286.99448796841	1026.25831596499	153.170784823524	1450.944091962	636.443930926029	128.38979492626	1120.41206916103	1118.92883364014	175.225790551206	1472.83954016338	861.874355897452	141.776603936611	1476.3451055376	1492.66400453867	189.885789011961	2032.29547641069	1285.63044362809	139.537818932253	2202.91682822581	782.057453704506	151.347945787148	1039.92592804763	672.582777254649	128.815186891758	1446.59952745405	982.91537929982	140	1856.09664394172	360.285975587886	127.732002206875	911.072893416075	699.939394296263	185.24553445321	1110.42420983917
290.595824248436	141.123127125378	567.731614903579	1372.68080127556	241.714024412114	1872.11080735354	658.631708606462	141.237024504179	1216.06584383869	1002.61191064922	164.576969554446	1357.80003291958	1053.45035742665	130.292536570932	2285.49234328951	1025.51275949593	153.16356636017	1449.79348250922	636.119175942032	128.4079320582	1119.42469407032	1117.89179681376	175.143386877018	1470.68676898444	861.619892196104	141.762975495821	1474.97105598905	1491.78667758855	189.834782867012	2028.96164768368	1285.31524776768	139.5490612709	2201.531509589	781.904583464291	151.328453977034	1039.21679228675	671.946874755421	128.851789147445	1444.32681378732	982.224480721416	140	1854.07387460457	360.182360902846	127.736564545747	910.492024650857	699.513409312302	185.178661909808	1108.92520684321
290.517549635838	141.122313852232	567.184824469898	1371.54254988128	241.559652061302	1869.33629697628	658.434712280387	141.240773569906	1214.80898339651	1002.13523975499	164.592321933575	1356.02058926757	1052.92552893086	130.272103096006	2284.0702952983	1024.77837579845	153.155948052887	1448.65316800029	635.771659819455	128.428051148893	1118.45251191543	1116.93171420862	175.083557173799	1468.71764283951	861.342201603959	141.756678849214	1473.64645053952	1490.92431842799	189.809935151534	2025.79380633879	1284.99221486762	139.573105050491	2200.38501643816	781.760299783996	151.345398206268	1038.61344699092	671.4197104232	128.885042597189	1442.09009744415	981.712956888203	140	1852.1487695881	360.108640900976	127.744035100992	909.890832992141	699.203349959084	185.122582951003	1107.52836574657
290.440770141163	141.124454348275	566.688652827002	1370.45858884035	241.392235652858	1866.75699440701	658.285031939354	141.238351727076	1213.67988706154	1001.79174000711	164.627317419198	1354.4434579377	1052.43682330685	130.251076281567	2282.76444980464	1024.10809799678	153.14688919188	1447.61710144972	635.392226897341	128.444809123453	1117.47695371878	1116.06135308673	175.047483974859	1466.94272497739	861.022387988524	141.760455439791	1472.39115937299	1490.0917600782	189.818361994362	2022.88263471101	1284.62909292876	139.611005277717	2199.40573409379	781.626994650462	151.397352910656	1038.12986768206	671.006845250362	128.907067852647	1439.9087730876	981.39947923915	140.001327222897	1850.42312839514	360.059777951843	127.751490250848	909.25397175285	699.01282272551	185.078884203872	1106.26577694649
290.368552985361	141.129511685363	566.254758592725	1369.41510833807	241.228122684577	1864.40411922308	658.199685251622	141.231921119417	1212.74801142458	1001.63180456501	164.678577693864	1353.21059009797	1052.01456651369	130.233505033862	2281.64645935643	1023.55552525603	153.137396984017	1446.7907468218	634.980168013047	128.455615173796	1116.50127370418	1115.30259097311	175.035454555511	1465.39382535287	860.653680372893	141.77580781892	1471.244456585	1489.32869637643	189.864015244969	2020.36538855904	1284.21665517756	139.66111227397	2198.5561142354	781.52084201664	151.477626388625	1037.79981435001	670.715555918872	128.911997721638	1437.85436113072	981.302520309143	140.004650252251	1849.0716699005	360.028429474207	127.754833076908	908.586191571979	698.952298106537	185.046700926337	1105.2105248332
290.303093540407	141.137396984017	565.886311717229	1368.3536607209	241.074919690636	1862.23561485935	658.187629639829	141.224450910456	1212.06794439952	1001.68205915774	164.737869050968	1352.43909792355	1051.69012702909	130.225340118469	2280.80337053654	1023.15949605409	153.13083890826	1446.2619302736	634.544151464653	128.460753183353	1115.54465454208	1114.68453626218	175.047483974859	1464.11060995836	860.243533735848	141.802371724114	1470.25120224342	1488.68970679215	189.948413046926	2018.38839081803	1283.76721168482	139.719190514	2197.8290230973	781.465175705867	151.575629913695	1037.66365075154	670.557423095835	128.898663797069	1436.04274073939	981.43710895356	140.013077025505	1848.30520964594	360.007099550358	127.751142517436	907.914003793706	699.03571806802	185.025106444853	1104.462863858
290.246861676107	141.14688919188	565.580766375407	1367.18247475648	240.930859492457	1860.142735258	658.248177729719	141.219795920604	1211.66589508218	1001.93995872575	164.796254363015	1352.1921126976	1051.48331488192	130.230093070045	2280.30182293451	1022.92903248514	153.129104600526	1446.06631965567	634.098648340191	128.462016889236	1114.62947418302	1114.23167608182	175.083557173799	1463.11755596888	859.810482612285	141.837760862727	1469.4514225198	1488.22780528532	190.068201666184	2017.06643123846	1283.30592338198	139.779657867194	2197.24212191336	781.47906577713	151.679104712785	1037.75211623846	670.543919648679	128.870895399474	1434.60041833083	981.804960684708	140.028429474207	1848.29676204304	359.986922974495	127.738934416004	907.274593981294	699.275304885429	185.011749802608	1104.11213015628
290.200689668575	141.155948052887	565.326462977751	1365.80164869784	240.785831783304	1857.98025529247	658.369450051389	141.220450726033	1211.52712716681	1002.36980702933	164.842745542007	1352.45658658873	1051.40398316628	130.251568638532	2280.1642225002	1022.84820882668	153.134063654841	1446.17969915508	633.663168001137	128.464461449741	1113.77591933231	1113.95966831782	175.143386877018	1462.41169779439	859.384221580841	141.876872874622	1468.8701319011	1487.98328091206	190.214168216696	2016.44838302007	1282.86433867131	139.835389092586	2196.81684863678	781.571306819712	151.774209448794	1038.06915869079	670.678973389444	128.835106416933	1433.62462021785	982.380813932409	140.052473253798	1849.11560928541	359.959820723185	127.718500941078	906.702079890685	699.666768999141	185.004650252251	1104.20163156838
290.165826458224	141.162239137273	565.105996755004	1364.14379231962	240.627303101459	1855.62508988555	658.531383913329	141.226741810419	1211.60402869548	1002.91105153469	164.868907099965	1353.14525978482	1051.44536758674	130.290908156651	2280.36367972235	1022.87576830593	153.146906347334	1446.52915135036	633.257893581054	128.471734789028	1112.99928015858	1113.8649004904	175.224463328309	1461.95990980705	858.997905246096	141.915063851928	1468.50472799523	1487.96868009661	190.374962962797	2016.49092652102	1282.47154203611	139.880392344938	2196.55399645138	781.735837707707	151.851962870731	1038.5820192539	670.954541228408	128.79904869476	1433.14568726103	983.110755670122	140.084936148072	1850.6772981655	359.919097271995	127.691190842307	906.217214237323	700.186446041052	185.001327222897	1104.6976571252
290.142588710868	141.166134571274	564.900992974358	1362.20392494064	240.445587261069	1853.01800945977	658.709185318949	141.239041299998	1211.81849771163	1003.48779102822	164.869947047551	1354.10322514533	1051.58684753585	130.345577491776	2280.8047206755	1022.95972111189	153.165584884303	1446.99523475506	632.902069749842	128.486055931226	1112.29974846639	1113.92309236448	175.322222510112	1461.68923041922	858.683348704838	141.947526746202	1468.32417220764	1488.16497697199	190.534403030723	2017.05436221829	1282.14995668066	139.910390882001	2196.43318854344	781.952083098925	151.90602024649	1039.22384973905	671.344991802519	128.768708268562	1433.10535604926	983.913832813377	140.123127125378	1852.735274636	359.86259059813	127.660850416108	905.820072036575	700.785733426572	185	1105.47987995841
290.130431823423	141.166889389524	564.695370443913	1360.05474748824	240.236209182575	1850.19996297256	658.877173376992	141.253943315963	1212.08085190942	1004.01951731586	164.845910926531	1355.13760282728	1051.7971053118	130.411796492582	2281.34180826087	1023.04733570226	153.188131330422	1447.43572059289	632.610139849214	128.507556809015	1111.66526500022	1114.08992339935	175.427693115658	1461.49169861087	858.45966842859	141.971570525793	1468.26618251143	1488.5167251583	190.676097992443	2017.91430290827	1281.90676447745	139.923747524246	2196.39906657875	782.187237753677	151.934714278332	1039.90133726711	671.806927459732	128.748426020443	1433.36477107456	984.689980205596	140.162239137273	1854.91962645874	359.790609503653	127.63049332169	905.489817400245	701.395090032186	185	1106.35813155361
290.12829132738	141.166370632599	564.479986969513	1357.8417241717	240.003064230405	1847.31131076615	659.014120076845	141.268780066652	1212.3045474222	1004.43898758796	164.802638923	1356.04909048023	1052.03610062537	130.485345678455	2281.7894264312	1023.09218141447	153.210163896363	1447.69624029207	632.388581700116	128.534473185223	1111.06709970154	1114.30286216789	175.529473161733	1461.2330423553	858.332937143484	141.986922974495	1468.23364861987	1488.94349601528	190.785085368531	2018.77410112468	1281.73393344012	139.922443019025	2196.34567412591	782.403437984064	151.941549271054	1040.49522820761	672.283981300402	128.73973461998	1433.72805929467	985.335596556442	140.196301052989	1856.80822363362	359.708656262201	127.603123384259	905.193471590498	701.935043368702	185	1107.10971185391
290.136204150883	141.166018161585	564.25527527646	1355.76078937771	239.755543329679	1844.56960736206	659.108755035623	141.279915540386	1212.42619993061	1004.70630098157	164.749379713391	1356.67474772394	1052.26793710674	130.559229858837	2281.95372353705	1023.07257986726	153.228056615462	1447.63870014375	632.237592012529	128.565207333984	1110.46128104032	1114.50067307418	175.614676508692	1460.77118220074	858.284751775081	141.995349747749	1468.10949689078	1489.34318231726	190.85038165606	2019.31615587814	1281.60162322114	139.911618850664	2196.127669027	782.558326806639	151.932865598736	1040.8813805124	672.713894336003	128.742542020895	1433.97984140017	985.757347376424	140.21954192883	1858.00743789909	359.623732531983	127.583270938654	904.890529055702	702.327316842282	185	1107.51819873043
290.154618130216	141.166370632599	564.030204696105	1354.00822560893	239.506506561607	1842.21412255614	659.160852059699	141.286157573169	1212.41278182547	1004.81156088199	164.696639260707	1356.91500516306	1052.46889483	130.628551700346	2281.68204846794	1022.99684604645	153.238758811913	1447.17706041946	632.151603451126	128.595824248436	1109.80494991811	1114.64047693024	175.671546022966	1459.99475649492	858.285612254929	141.998672777103	1467.77255502751	1489.62785403753	190.865706579912	2019.25335042508	1281.47908312549	139.897590565946	2195.57799217442	782.622466146827	151.916269102915	1040.94500499353	673.040248952937	128.755357188539	1433.92894458598	985.890478871408	140.227794757601	1858.23227141364	359.54265051847	127.574413321853	904.544277684182	702.508952018276	185	1107.41975752403
290.182770687457	141.166889389524	563.817329436259	1352.74163702923	239.268242747909	1840.45344890947	659.180264527553	141.286764243472	1212.26412413467	1004.77474129798	164.654810889762	1356.74974736372	1052.63375955528	130.687958495678	2280.90037939723	1022.90422306772	153.242914065948	1446.30378865884	632.120761154672	128.624404174455	1109.06620320124	1114.70675024904	175.691979497892	1458.85180570174	858.29485657063	142	1467.12264162061	1489.73378333245	190.832484129787	2018.38857319671	1281.33580350394	139.884775398303	2194.54663869904	782.581643510977	151.898917788843	1040.6056450318	673.219332590803	128.775790663465	1433.44168711675	985.704812868824	140.21954192883	1857.3583692527	359.469106139771	127.578162387579	904.127083184247	702.442448579042	185	1106.73173792079
290.221123143501	141.166134571274	563.629320836334	1352.04627410005	239.05073624629	1839.41596992689	659.183208771914	141.283616837289	1212.00765176368	1004.63913565506	164.62996630277	1356.23469102068	1052.77622086189	130.733503153058	2279.63412476474	1022.85587102842	153.240861483284	1445.10213790501	632.136557180479	128.6491006135	1108.23479900115	1114.71828663389	175.673300960924	1457.36581420696	858.275001578281	142	1466.11047830051	1489.64032615785	190.756482171038	2016.66493334104	1281.15839319514	139.875562807179	2192.95452314609	782.44461432043	151.884775398303	1039.83916643089	673.22929334191	128.801166473127	1432.45390189563	985.208006577128	140.196301052989	1855.42411571722	359.401971738507	127.594351798563	903.618438875164	702.120561872624	185	1105.45776909936
290.266781201282	141.16356636017	563.4713889555	1351.91273714542	238.859347837264	1839.11306573204	659.183739877119	141.281499058922	1211.67818613063	1004.45119196583	164.62583724118	1355.4690103644	1052.92424503945	130.763149219108	2278.02820099968	1022.91572380399	153.235959139143	1443.74552978604	632.189536773348	128.667523292438	1107.33848945348	1114.71385578103	175.618805570281	1455.64532350056	858.196481886342	142	1464.74895399975	1489.37085725196	190.649772255973	2014.17563355984	1280.95472647824	139.869702566341	2190.81979394369	782.241865100347	151.876890030076	1038.68577843736	673.068237105984	128.829067028529	1430.97922991195	984.440539834183	140.162239137273	1852.61592637953	359.334661714072	127.619688950035	903.011865682467	701.564904595778	185	1103.68458060704
290.315794602228	141.159271082241	563.339029649809	1352.25573054591	238.696658267254	1839.44790447209	659.19082835266	141.284930681503	1211.30664109291	1004.25644483902	164.641459809738	1354.56957866036	1053.1076653492	130.77712539331	2276.29659790713	1023.12943482334	153.231044329257	1442.44670362347	632.272811675475	128.677771927666	1106.42778436002	1114.73628234367	175.536940242208	1453.84014241425	858.045012303606	142	1463.11740473054	1488.9782941386	190.526408931327	2011.14625816254	1280.74761854229	139.863388764279	2188.27344690937	782.015697660102	151.874352818591	1037.24573874822	672.752442724953	128.857673146993	1429.08954405585	983.460402825539	140.123127125378	1849.20486348059	359.256680492805	127.6482998061	902.310492928943	700.818324372373	185	1101.5500356225
290.36364087525	141.153988742237	563.21922275737	1352.9331538192	238.563284185335	1840.23940742534	659.205617686473	141.296592570733	1210.90993797299	1004.08416326233	164.671626291453	1353.63720628453	1053.34818595471	130.776741922678	2274.67742510534	1023.50731305854	153.227527558715	1441.40736386744	632.380507935657	128.679441039699	1105.56421383357	1114.81061845771	175.439355004889	1452.1035808548	857.822654123837	142	1461.34712009615	1488.5310333609	190.400844856123	2007.87924279723	1280.56984102713	139.853093652666	2185.53102638018	781.811211381641	151.87381134399	1035.65907573465	672.310745777686	128.884513540441	1426.89396515209	982.333609461242	140.084936148072	1845.48170276815	359.156104620719	127.672769204402	901.525166694552	699.936217217062	185	1099.21292706043
290.403825980324	141.149426403365	563.091614365427	1353.78152880106	238.460607690338	1841.26037794898	659.217085972457	141.316766225625	1210.4818287509	1003.94332332461	164.708656262201	1352.72716602268	1053.65022406537	130.765976209213	2273.37381321543	1024.01878390637	153.22499034723	1440.76692932176	632.506506561607	128.670495509519	1104.80274258489	1114.92932642625	175.337033484213	1450.54410521126	857.549989053849	142	1459.589472717	1488.09457996596	190.285192539364	2004.68217147666	1280.45641427466	139.836962696578	2182.8481134998	781.665711664273	151.872222622371	1034.07226184445	671.781278670795	128.90829582131	1424.51694031682	981.125200146776	140.052473253798	1841.70094669577	359.024817317549	127.686748437517	900.67718576213	698.976739854213	185	1096.81891946229
290.432084568961	141.146455914597	562.938757998222	1354.65863078003	238.392628189353	1842.3031296896	659.209523571509	141.343018825447	1210.00404823091	1003.82476450969	164.742715744182	1351.85250203132	1053.99719534939	130.748571247419	2272.50139470733	1024.59494505034	153.221407497842	1440.56095446809	632.644605364829	128.650553266668	1104.17144494423	1115.05049786969	175.238491613027	1449.19073506689	857.261317142035	142	1457.98562358771	1487.71476488688	190.187085624149	2001.7958286787	1280.43182494042	139.814388725609	2180.45943955594	781.598896049192	151.864609122262	1032.60856907321	671.203831501905	128.925766048379	1422.0824203232	979.888915589721	140.028429474207	1838.04634663118	358.860465209083	127.683379001351	899.795425823668	697.993245265134	185	1094.48321263869
290.444272456025	141.146215046098	562.749911677428	1355.46236393634	238.366059546557	1843.21627705259	659.164803400034	141.370495140557	1209.45680241501	1003.7048855092	164.765108529758	1350.9905928381	1054.34948222756	130.72692215211	2272.06421148911	1025.13702806348	153.213914224921	1440.70685277028	632.784311830574	128.619181533966	1103.66062371604	1115.10123921889	175.146906347334	1447.98278736164	856.998243182125	142	1456.63341685828	1487.40869722204	190.108435753289	1999.34010701989	1280.50551756248	139.788084640448	2178.52329163182	781.60722604679	151.847116177518	1031.33979962294	670.620477353263	128.934170103957	1419.69894275633	978.672365199278	140.013077025505	1834.6157857993	358.668476985386	127.662077307774	898.911555758432	697.031164188488	185	1092.28146202124
290.440669809932	141.148210852555	562.522361193522	1356.15006858967	238.38690470598	1843.91400279276	659.069567333174	141.393644974534	1208.82358439195	1003.55812264058	164.768343645734	1350.0927043153	1054.65535902492	130.702004710845	2271.94836045391	1025.54302705727	153.200951305239	1441.01555321746	632.911792573951	128.577760247858	1103.22007624808	1114.99965890717	175.061156926116	1446.78187912832	856.800470503883	141.998672777103	1455.56357578627	1487.16102694324	190.045373703441	1997.28911544496	1280.66181002147	139.76019358193	2177.07834529068	781.665776617376	151.816687837942	1030.27045996005	670.069943446656	128.930847074603	1417.45024401279	977.515493422659	140.004650252251	1831.43232240856	358.459897073042	127.624238871054	898.056614477835	696.12772002982	185	1090.25053798866
290.423113621331	141.154882687852	562.264540374008	1356.72631379917	238.461031792688	1844.37994005266	658.920373932222	141.411019006281	1208.10174565191	1003.36143195212	164.749553436678	1349.11029941969	1054.86052719069	130.673144393092	2271.95077608048	1025.72421194944	153.180943866686	1441.22943756312	633.011740292044	128.531150155869	1102.76530175209	1114.67745140564	174.976220778044	1445.40688392212	856.695816849837	141.994022524852	1454.73373305528	1486.9286684302	189.989577420289	1995.47981728723	1280.86003993839	139.733235954172	2176.02711347741	781.730445284764	151.771689392763	1029.33585190685	669.581734386093	128.914016245771	1415.37707055609	976.448298252976	140	1828.44880709977	358.24878672464	127.576262001448	897.248606225093	695.306116626945	184.998672777103	1088.38966777953
290.396469530903	141.166106074963	561.991595944422	1357.22105963083	238.586958590836	1844.64303807716	658.724452554046	141.42180911611	1207.30547889755	1003.10134218989	164.709607521414	1348.00853530701	1054.91940077342	130.637738099024	2271.83326556016	1025.62926490615	153.15462082999	1441.08680715841	633.067715860704	128.48524989899	1102.20209278347	1114.09820288486	174.886369820086	1443.68659728309	856.693930600976	141.983599945141	1454.04647701593	1486.65711996892	189.930847074603	1993.66948234503	1281.04384515218	139.707864951684	2175.16739658389	781.751718365862	151.712256404986	1028.42517643423	669.173147126556	128.884516599354	1413.47873451067	975.494170323058	139.995349747749	1825.57929042257	358.049141962449	127.526945598755	896.49013805185	694.581306980546	184.995349747749	1086.67208436291
290.36750057203	141.182682774079	561.71998520538	1357.6745426191	238.756417212549	1844.75377799304	658.497351284082	141.427325585541	1206.45817012775	1002.77452174079	164.651366539814	1346.77337227419	1054.81401008168	130.594618997449	2271.37391477542	1025.25806787945	153.124861433113	1440.38482303388	633.06911274548	128.447346196995	1101.44289996008	1113.27696581227	174.787286474299	1441.50601905003	856.787482352585	141.964470975436	1453.37190686537	1486.29789968487	189.861263375233	1991.60160700704	1281.15476679963	139.683684207112	2174.23360484007	781.688991299892	151.640306310128	1027.41005685892	668.848506248382	128.845117312148	1411.70716446759	974.666887249291	139.988250197392	1822.72077683173	357.872424107721	127.486594277341	895.765293096014	693.955375055946	184.988250197392	1085.05114537076
290.343816991597	141.203483779124	561.467364325088	1358.11717603476	238.955629610396	1844.77471432295	658.260289391106	141.429448053616	1205.59521923068	1002.39015638913	164.579663333763	1345.42377114382	1054.55006739537	130.543162419763	2270.42026476713	1024.65833874356	153.094153476796	1439.03056538312	633.010508218049	128.421541917224	1100.42996610114	1112.27181995656	174.677777489888	1438.84038309145	856.950149033349	141.935497326854	1452.5917507159	1485.8218061156	189.775536671691	1989.0928690184	1281.14521181034	139.657857964712	2172.98494633997	781.519167024948	151.560557081733	1026.19257552471	668.599809282827	128.801166473127	1409.98051668554	973.976486793861	139.976220778044	1819.77785405713	357.726321488758	127.463831731496	895.042848366662	693.42601016549	184.976220778044	1083.47210143096
290.331523014614	141.225536559432	561.248302470976	1358.56185142605	239.167011361433	1844.77445769217	658.03232452293	141.428499147895	1204.75477811895	1001.96471161301	164.499394593396	1344.00627287105	1054.1647685115	130.48613142675	2268.9334378075	1023.91769457937	153.065807178367	1437.07263344895	632.895936693467	128.410603659448	1099.15475060242	1111.17879445911	174.56188430463	1435.77222382338	857.14690736842	141.898119622694	1451.63351796141	1485.23237299797	189.674454460534	1986.09387620067	1280.99356747246	139.629697589277	2171.27735160129	781.248845848583	151.476914098026	1024.7409058416	668.408323949571	128.758413156949	1408.21773320072	973.423622939383	139.95927654881	1816.7125313132	357.613377802906	127.46227088101	894.293530807302	692.983086138969	184.95927654881	1081.89773500757
290.335820726278	141.244642811461	561.075942370158	1359.01133082758	239.375469301868	1844.83300817289	657.829175793327	141.424370086305	1203.98175571363	1001.52451627865	164.417532393808	1342.59857892178	1053.71468164509	130.429715473699	2267.00858455876	1023.14224589997	153.043377896984	1434.69927562981	632.737648245213	128.411908164669	1097.66629096581	1110.10953680329	174.446747616311	1432.48591285385	857.339737847533	141.856439399695	1450.48841830524	1484.56382732665	189.565207333984	1982.71077443828	1280.70647025146	139.599938192399	2169.10382934293	780.910747082285	151.395925356528	1023.10918894076	668.259655091688	128.723863483927	1406.3747237689	973.016831363446	139.938843073884	1813.5732398379	357.534755456895	127.4808615046	893.503482747432	692.625008985133	184.938843073884	1080.32805186382
290.35889538578	141.257457979105	560.96220589281	1359.46464891431	239.572574083228	1845.03943840329	657.662865450309	141.41742419649	1203.32652967953	1001.10680423435	164.341015152904	1341.30304347379	1053.2657617948	130.380411381197	2264.84763985073	1022.43802842006	153.028429474207	1432.19456024615	632.555831605382	128.421641171458	1096.06156298987	1109.17208900904	174.344600040119	1429.2313678419	857.499505376053	141.816514114655	1449.22045125279	1483.88084164752	189.458497418919	1979.19450159035	1280.32218745932	139.57239479772	2166.614208518	780.561416821143	151.322743700773	1021.43431982992	668.143250879986	128.702616735854	1404.47030916405	972.76650634425	139.917596325812	1810.51045148209	357.488254116023	127.514314519862	892.6885190194	692.354829482504	184.917596325812	1078.81215316704
290.400938331723	141.261592602917	560.919893582058	1359.92219378468	239.755884207459	1845.48912348758	657.539740758666	141.408290091435	1202.84714017598	1000.75330727098	164.27824664955	1340.24142489274	1052.88406738636	130.345022242584	2262.75009490404	1021.89470485091	153.023499605216	1429.89833236945	632.375549570356	128.434798228237	1094.48476147352	1108.45612524965	174.267297050918	1426.29317256782	857.610538429158	141.785020410043	1447.95706713928	1483.26335989406	189.369706484972	1975.89754474163	1279.89952970932	139.55319033249	2164.09267906937	780.268563742609	151.262740540305	1019.91810401713	668.060147770662	128.696727174085	1402.60271972974	972.689929484107	139.898917788843	1807.7666724154	357.470358893615	127.552130308479	891.898518664046	692.185075506564	184.898917788843	1077.44905708419
290.458409505541	141.256224231808	560.959219256012	1360.38835088879	239.930411493455	1846.26184157235	657.463133170648	141.400140165573	1202.59741675556	1000.50428856145	164.237633829414	1339.52906145444	1052.61801286918	130.3273231951	2261.0371031533	1021.56789920967	153.028429474207	1428.13132308804	632.221905013047	128.447613395881	1093.09494818086	1108.01484906637	174.22561682792	1423.93559439091	857.677662041029	141.767642903526	1446.85371870956	1482.79929749843	189.312670754359	1973.18845021307	1279.51171217876	139.549078426354	2161.88427968401	780.099951058918	151.218691000849	1018.77481325073	668.025529260079	128.706398064032	1400.94044568922	972.809006927854	139.886102621199	1805.63919811873	357.479065283609	127.585557633133	891.213737619097	692.136266519939	184.887429844096	1076.3763282718
290.527824067602	141.243041534046	561.088683942162	1360.87807389704	240.105117531109	1847.42181246398	657.435200054101	141.395925356528	1202.62876837899	1000.39293548432	164.223491438873	1339.26696268712	1052.4959665856	130.326872762363	2259.99376592838	1021.47940660285	153.042050674087	1427.1366146091	632.115734534756	128.456369992046	1092.04106571887	1107.86519709971	174.22561682792	1422.35843438423	857.716538551567	141.767642903526	1446.06489601563	1482.55230109773	189.298523556644	1971.38040169472	1279.22168840736	139.56536437539	2160.32431800778	780.103434008948	151.192166650374	1018.18795308977	668.063330095128	128.727984817372	1399.67998118901	973.141992506641	139.881540282327	1804.4069449255	357.512577512354	127.606599506676	890.722209195077	692.229375949204	184.887517757474	1075.72880862746
290.604336501333	141.224730527196	561.31184081574	1361.40749531244	240.290816718878	1849.00156483964	657.454321027849	141.399517633226	1202.97557285346	1000.43262354776	164.237540353814	1339.51725428288	1052.51936860159	130.33923749727	2259.82078785476	1021.61594631192	153.061156926116	1427.04491875395	632.069886271	128.458671142206	1091.43985504764	1107.98882287112	174.267297050918	1421.67140621995	857.754482496463	141.785020410043	1445.71213491611	1482.56186014492	189.331799724064	1970.66747828713	1279.07911255015	139.604076543357	2159.66601157418	780.304009786306	151.181984939161	1018.26945510601	668.200695941583	128.756140503099	1399.00838906104	973.695873046961	139.887429844096	1804.27457212354	357.570805938158	127.612776343757	890.504517310071	692.478939891359	184.903829898955	1075.61587969515
290.682356984215	141.20428981136	561.62718498523	1361.99708882942	240.495887540933	1851.00337958212	657.519168240279	141.41235308481	1203.65240951973	1000.61819000844	164.275197674714	1340.2964803653	1052.66585125003	130.356267270374	2260.58928360766	1021.93652582673	153.082403674188	1427.85287660657	632.088165609165	128.453235141659	1091.35177843914	1108.33948868242	174.344600040119	1421.87815802237	857.816040427752	141.815186891758	1445.85639829433	1482.82315988516	189.407775490368	1971.08979061622	1279.10280697809	139.660566061768	2160.02723195107	780.693349207569	151.184377527094	1019.03635158908	668.456044158227	128.785287608929	1399.0495775602	974.458988757796	139.903568041094	1805.31684242531	357.655058025904	127.603180697858	890.611808336507	692.887125716598	184.939097065658	1076.08853144889
290.758063385709	141.184284051495	562.025134206916	1362.66730786309	240.725988872973	1853.39685105629	657.625849659034	141.433599832882	1204.64857794942	1000.92535270516	164.327416936738	1341.56710626847	1052.89814023216	130.370295555091	2262.22131963208	1022.38719789706	153.101082211157	1429.4288997018	632.167199777614	128.439987092641	1091.76927750571	1108.85728915418	174.446747616311	1422.87485635866	857.920344957139	141.851789147445	1446.49279929366	1483.29572573513	189.515004092785	1972.53626844795	1279.28649598856	139.726927714332	2161.37818980729	781.238756473104	151.194020892191	1020.41674021013	668.833392585511	128.811065696255	1399.82380285248	975.39704840091	139.92934612842	1807.44885387491	357.766246773798	127.583273638428	891.048654006018	693.439244301973	184.995176024463	1077.11970628312
