Light	Light	Light	Light	Light	Light	Light	Light	Light	Light	Light	Light	Light	Light	Light	Light	Light	Light	Light	Light	Light	Light	Light	Light	Light	Light	Light	Light	Light	Light	Light	Light	Light	Light	Light	Light	Light	Light	Light	Light	Light	Light	Light	Light	Light	Light	Light	Light
Optode1-730nm	Optode1-Ambient	Optode1-850nm	Optode2-730nm	Optode2-Ambient	Optode2-850nm	Optode3-730nm	Optode3-Ambient	Optode3-850nm	Optode4-730nm	Optode4-Ambient	Optode4-850nm	Optode5-730nm	Optode5-Ambient	Optode5-850nm	Optode6-730nm	Optode6-Ambient	Optode6-850nm	Optode7-730nm	Optode7-Ambient	Optode7-850nm	Optode8-730nm	Optode8-Ambient	Optode8-850nm	Optode9-730nm	Optode9-Ambient	Optode9-850nm	Optode10-730nm	Optode10-Ambient	Optode10-850nm	Optode11-730nm	Optode11-Ambient	Optode11-850nm	Optode12-730nm	Optode12-Ambient	Optode12-850nm	Optode13-730nm	Optode13-Ambient	Optode13-850nm	Optode14-730nm	Optode14-Ambient	Optode14-850nm	Optode15-730nm	Optode15-Ambient	Optode15-850nm	Optode16-730nm	Optode16-Ambient	Optode16-850nm
361.970510501783	139.7305870706	767.359538183874	1679.00528141956	175.473482337503	2459.12876285393	1070.14202281161	138	2114.61131843011	1760.16828298266	146.364343942123	2462.63239473449	1655.81128975212	127.023779221956	3501.77641856905	1492.98001566179	135.177710650595	2153.2485760469	798.331105837489	125	1611.54842412325	1346.23761359644	145.023779221956	1912.98932596757	1224.46587183598	138.349043244798	2346.22186648424	1840.97326162923	159.779919725055	2612.29947385282	1416.4131818653	137	2543.04053350489	1397.75384356466	138	1934.39816543938	901.20427958113	126.045373703441	2166.36549664138	1539.60604580747	126.885840763338	2790.76977735175	309.476843340103	126	849.793595366355	2506.54474034185	134.082403674188	4104.67198601325
362.036229766771	139.720680119328	768.07198116407	1679.55877236622	175.596174019676	2462.34335077859	1070.74717633795	138	2117.39972055596	1760.57661102242	146.44209736406	2464.97616794959	1657.02107418025	127.04072345119	3509.46206321904	1493.60899766344	135.237369537817	2156.98679627885	798.670420251208	125	1614.66552400319	1346.69094885282	145.04072345119	1916.41418219506	1224.40709029181	138.361461696999	2350.62852628587	1841.77723216161	159.826011060119	2619.09819607982	1416.93690162197	137	2548.24183206251	1398.80682730377	138	1939.4625303115	901.798890039476	126.062484149013	2171.49988466963	1541.08054972545	126.893817103856	2798.06728974912	309.583530537492	126	851.371428182942	2507.69283687983	134.061156926116	4105.26771161943
362.072390879089	139.706919520731	768.866844221429	1679.78007842391	175.732119441184	2465.41151852895	1071.18660206003	138	2120.4581863166	1760.87936676079	146.527736154224	2467.86573609638	1658.27730904925	127.061156926116	3517.56943373742	1494.35540233805	135.312585678697	2161.081822208	799.061948236634	125	1618.06937390979	1347.39065714404	145.061156926116	1920.49344142349	1224.4909144734	138.363196004734	2355.62393983355	1842.57097172711	159.872222622371	2625.87444693739	1417.41907709932	137	2553.68310858493	1399.63767064791	138	1944.21201247208	902.426494605869	126.083730897085	2176.73239903854	1542.56009376298	126.898119622694	2805.20628935101	309.675955406718	126	852.808211780845	2508.78314744765	134.042050674087	4105.83767462931
362.083354933401	139.68647831766	769.710528952884	1679.70979013941	175.875138566887	2468.16465768726	1071.46458478776	138	2123.60548877732	1761.0685767311	146.61582444608	2471.02966430033	1659.47683035913	127.082403674188	3525.42209790032	1495.12536849395	135.392859226238	2165.10178138904	799.450128748521	125	1621.45444206734	1348.25300435578	145.082403674188	1924.86936629568	1224.67905022128	138.352376573974	2360.74939943022	1843.19353989566	159.913736629031	2631.91728535888	1417.80423208288	137	2558.86141001753	1400.1103071014	138	1948.13482325608	903.015608285031	126.105732463407	2181.61760407241	1543.87226068621	126.898119622694	2811.5287931142	309.736555035183	126	853.985661737973	2509.62773798098	134.028429474207	4106.32012483392
362.076426199041	139.656989040639	770.553911137441	1679.42535236076	176.020433474926	2470.43911965799	1071.60362829697	138.001327222897	2126.62175641324	1761.17310475365	146.701035521183	2474.16960172493	1660.51469463449	127.101082211157	3532.34828916773	1495.84516117962	135.469731371892	2168.6682992114	799.779617942684	125	1624.50159034058	1349.18555132698	145.101082211157	1929.15700645064	1224.94190539941	138.331702300122	2365.55051141186	1843.54365690795	159.947526746202	2636.66929291833	1418.06710761059	137	2563.33335159285	1400.16407671894	138	1950.8661314848	903.506056896355	126.125647181409	2185.75921750048	1544.88563827549	126.893817103856	2816.4819374775	309.756469753184	126	854.812108000987	2510.09859018989	134.023499605216	4106.66636124698
362.059829703219	139.615293340875	771.342890510956	1679.02354553199	176.163052410419	2472.11756603882	1071.63938722827	138.004650252251	2129.29644098225	1761.25296321332	146.779310133782	2477.02865380367	1661.30344895158	127.113897378801	3537.83255031539	1496.47325621737	135.537184944615	2171.53780631584	800.005852067945	125	1626.9497786325	1350.10769566824	145.1138973788	1933.02929703362	1225.26603089969	138.305486128339	2369.65213742162	1843.60386711957	159.971570525793	2639.82284331651	1418.21855229468	137	2566.77859050752	1399.82256347303	138	1952.23812761642	903.85624158202	126.142238939629	2188.86451325597	1545.52720216082	126.887167986235	2819.69340993091	309.733136226365	126	855.229954931457	2510.14994836409	134.028429474207	4106.83914309533
362.039396228293	139.563077137764	772.029922012943	1678.58847456074	176.298588515133	2473.14727325606	1071.61033542835	138.011749802608	2131.4706036285	1761.37665815698	146.847116177518	2479.43052495732	1661.78547781334	127.118459717673	3541.59364224639	1496.99977833008	135.593291774552	2173.62504582756	800.102306872623	125	1628.63461022461	1350.96163543911	145.118459717673	1936.26556737852	1225.64991827433	138.281846792335	2372.8059979162	1843.43614386013	159.986922974495	2641.35738631608	1418.2942239252	137	2569.0414269177	1399.17711712724	138	1952.29151380982	904.051803987885	126.15462082999	2190.77318171265	1545.79382466962	126.881452368949	2821.00598704317	309.672344189115	126	855.218186158266	2509.82797388186	134.042050674087	4106.80653067514
362.017801746809	139.502723184971	772.578301217868	1678.17161389878	176.422413475429	2473.53278019169	1071.54714987772	138.023779221956	2133.04636669544	1761.59634192656	146.901986826423	2481.27694231695	1661.94358333423	127.113897378801	3543.62655501274	1497.44062215337	135.637738099024	2174.9937999486	800.065078481725	125	1629.514544637	1351.72102616841	145.1138973788	1938.77761011374	1226.09754204292	138.270816521235	2374.92135133598	1843.16033393667	159.995349747749	2641.51910729818	1418.34494970645	137	2570.14318789916	1398.36069523708	138	1951.24833284782	904.104046945331	126.162239137273	2191.48163953679	1545.74771423726	126.88021305943	2820.50822481909	309.585282000681	126	854.802056261248	2509.25801268488	134.061156926116	4106.5688262704
361.994022524852	139.44209736406	772.971593266538	1677.78642316463	176.528425555576	2473.33405114283	1071.46838575955	138.04072345119	2134.00922650775	1761.93384335181	146.942876493951	2482.54757061937	1661.79472969012	127.101082211157	3544.14735057215	1497.81883758704	135.673144393092	2175.79213529239	799.909132328722	125	1629.65619161554	1352.38006231328	145.101082211157	1940.58607457459	1226.6017752146	138.278670889842	2376.03501071666	1842.90469822592	159.998672777103	2640.70729995119	1418.40784120932	137	2570.23274711053	1397.50294683476	138	1949.42917787469	904.045351976319	126.164807348377	2191.12207923991	1545.49268848415	126.886102621199	2818.4980772516	309.485702635592	126	854.049492103139	2508.60952807349	134.082403674188	4106.15376011971
361.963143752539	139.389356911376	773.217973645062	1677.4112956821	176.609592979158	2472.65584198383	1071.37685761513	138.061156926116	2134.4202819372	1762.3706556927	146.970243302896	2483.28141375687	1661.38919879168	127.082403674188	3543.51413406658	1498.15337747759	135.702004710845	2176.18857634417	799.664147849321	125	1629.20453629408	1352.94598870428	145.082403674188	1941.78374879612	1227.13711041944	138.309757509616	2376.28388981993	1842.76670994534	160	2639.37219604612	1418.49291468224	137	2569.54227592415	1396.70000236971	138	1947.1807806757	903.914222176106	126.162239137273	2189.92134612046	1545.14843161904	126.898917788843	2815.40867656837	309.386702465582	126	853.059948933363	2508.05230867635	134.101082211157	4105.60320377211
361.919097271995	139.353567928835	773.34380853723	1677.01106948053	176.659158570383	2471.62576862025	1071.26563556776	138.082403674188	2134.39724387345	1762.85989534591	146.986922974495	2483.55256054372	1660.79482731265	127.061156926116	3542.15077509767	1498.44850841274	135.725594929214	2176.32632082303	799.366788281432	125	1628.35187651638	1353.42667986428	145.061156926116	1942.50281084304	1227.65883759648	138.360929940478	2375.86652368794	1842.79238735776	160	2637.91511518496	1418.58193674701	137	2568.33815615346	1396.00186759777	138	1944.81209598007	903.748281963126	126.15462082999	2188.16376657791	1544.82093458383	126.917596325812	2811.74215648985	309.296680484111	126	851.955078253634	2507.71692430466	134.1138973788	4104.98106367215
361.856613122982	139.341155038855	773.391598406864	1676.55136570175	176.673300960924	2470.38300740257	1071.12046144071	138.101082211157	2134.0960982539	1763.33890865119	146.995349747749	2483.4626840072	1660.09414193146	127.04072345119	3540.45618950134	1498.70208556411	135.743920995169	2176.29394722476	799.055656618397	125	1627.29648285773	1353.83308372093	145.04072345119	1942.8785616528	1228.10285839074	138.424090469565	2374.98954115768	1842.96592225979	160	2636.63532786675	1418.62564142803	137	2566.8701745359	1395.39060068883	138	1942.53549923691	903.567690701254	126.142238939629	2186.11303744542	1544.56602156869	126.938843073884	2807.93967712884	309.218491415383	126	850.854287608301	2507.66015247451	134.118459717673	4104.33038146528
361.772882225897	139.353456256748	773.405890289632	1676.01411599056	176.650299274894	2469.05380832678	1070.93429017598	138.113897378801	2133.68624285744	1763.77215372824	146.998672777103	2483.16821179174	1659.35010471468	127.023779221956	3538.71023745347	1498.90943664239	135.755553629501	2176.13674284107	798.754173967556	125	1626.1897314018	1354.16387292226	145.023779221956	1943.01865254097	1228.383430985	138.488051875625	2373.8053209274	1843.2468980624	160	2635.73781329209	1418.55660801071	137	2565.33359635519	1394.78796160934	138	1940.44124508674	903.364427844636	126.125647181409	2183.96223844471	1544.352882271	126.95927654881	2804.26671336592	309.150753626262	126	849.854490489893	2507.83910784681	134.1138973788	4103.66452521512
361.667149762489	139.388035250701	773.422430210494	1675.39989232301	176.594243033765	2467.74374902619	1070.70650270892	138.118459717673	2133.32267607032	1764.16811518198	147	2482.88802051276	1658.59024044757	127.011749802608	3537.0284367637	1499.07463547334	135.756285730075	2175.89256129496	798.460839789591	125	1625.10055791406	1354.41040149357	145.010422579711	1942.99597661762	1228.39549293602	138.540297330094	2372.37823185366	1843.62283928257	159.998672777103	2635.38086598677	1418.31044129076	137	2563.86264974955	1394.0807693174	138	1938.50995832404	903.101930625659	126.105732463407	2181.81531467559	1544.04790323653	126.976220778044	2800.75266469561	309.087930716599	126	849.027164320188	2508.11277687192	134.101082211157	4102.98784795665
361.541502581081	139.435783561999	773.456504682006	1674.7173006187	176.512528932499	2466.50107640066	1070.45013345191	138.113897378801	2133.12204407096	1764.59970851438	146.998672777103	2482.91294391479	1657.78209909489	127.004650252251	3535.32211339483	1499.20898547363	135.743501492477	2175.60807252067	798.136865227104	125	1623.98903410828	1354.54889141534	144.998672777103	1942.83831512978	1228.02079817244	138.569650538663	2370.66197552735	1844.1346690671	159.994022524852	2635.73402032498	1417.83236861275	137	2562.52856173532	1393.12897765575	138	1936.643289498	902.717187468068	126.083730897085	2179.68189327145	1543.41122802857	126.988250197392	2797.17130051942	309.026532921984	126	848.415918560251	2508.25492878993	134.082403674188	4102.28223320315
361.399263641452	139.486562270297	773.504165791085	1673.96779441228	176.414336473414	2465.30676480133	1070.18546162906	138.101082211157	2133.15368639168	1765.1995004959	146.994022524852	2483.60127893581	1656.82717436317	127.001327222897	3533.32743156734	1499.32877931915	135.71402171234	2175.36348879564	797.707115568535	125	1622.71502509552	1354.54698670268	144.984927168038	1942.54636987355	1227.14232674954	138.570463811809	2368.5202523436	1844.8971960837	159.982272722244	2637.0136333603	1417.08972433776	137	2561.35538685174	1391.80675654948	138	1934.71430319197	902.139148224697	126.061156926116	2177.5291394054	1542.13716737524	126.995349747749	2793.11160658424	308.966581246855	126	848.052905506021	2508.00854854591	134.061156926116	4101.53610304239
361.244642811461	139.530540564596	773.539401370742	1673.14748453564	176.309145484607	2464.0666969609	1069.93825400376	138.082403674188	2133.43083884419	1766.13767586948	146.982272722244	2485.31893987416	1655.58071507471	127	3530.69647418415	1499.44190995443	135.668043708104	2175.25952404338	797.076444310962	125	1621.08888622069	1354.36997016878	144.964470975436	1942.11839584218	1225.66982733318	138.542031637828	2365.80221437853	1846.0579782517	159.959820723185	2639.44037961929	1416.0731707428	137	2560.34115948823	1390.03265179513	138	1932.61914562349	901.308306517437	126.04072345119	2175.34481494136	1539.91032390836	126.998672777103	2788.10591094511	308.914890128641	126	847.975685382523	2507.12814313622	134.04072345119	4100.76602205945
361.083730897085	139.560181118049	773.539184230373	1672.25537789827	176.2034130212	2462.66733050722	1069.73471592206	138.061156926116	2133.94355155945	1767.58027879043	146.958493500288	2488.38151086302	1653.90454761643	127	3527.15252506597	1499.54472501109	135.607309759448	2175.39590534986	796.162160910706	125	1618.96287742394	1354.00031893129	144.935497326854	1941.59232538991	1223.5817511187	138.490164846818	2362.4395849903	1847.72978334464	159.923747524246	2643.15728035338	1414.80065456347	137	2559.47478247752	1387.79771563795	138	1930.3128658044	900.201232679118	126.023779221956	2173.16648583635	1536.49355927646	127	2781.75832040015	308.881799836323	126	848.220823095811	2505.4451178468	134.023779221956	4099.99609405125
360.923573800959	139.572589200855	773.490158264735	1671.31268084313	176.100553154409	2461.0163775999	1069.59967815239	138.04072345119	2134.66283570718	1769.64829291082	146.917770049098	2492.95511254369	1651.72425622314	127	3522.63676634374	1499.62477503704	135.535901069618	2175.84562458727	794.928830569236	125	1616.31753092032	1353.45958749906	144.898119622694	1941.07183806398	1220.94839688703	138.424876287434	2358.52772548224	1849.91559521304	159.873013177841	2648.13257705326	1413.30972700137	137	2558.75170891361	1385.17666467841	138	1927.8225435153	898.839766157657	126.011749802608	2171.10893456247	1531.79101172529	127	2773.8726383511	308.879000163553	126	848.823401902276	2502.89660398032	134.011749802608	4099.26652240848
360.773084466294	139.567913531155	773.404262115223	1670.37945870521	176	2459.11693265025	1069.55477938442	138.023779221956	2135.57508056887	1772.38257923613	146.857940345879	2499.01323333459	1649.07852488208	127	3517.40246398876	1499.67236481493	135.459448678132	2176.64380274606	793.413346546138	125	1613.31248723588	1352.81942267678	144.856439399695	1940.73723871692	1217.95096505792	138.360144122609	2354.36252949598	1852.48482006967	159.811065696255	2654.10620205503	1411.67016467828	137	2558.18379991022	1382.33553488321	138	1925.24662719294	897.296638069002	126.004650252251	2169.35605748319	1525.89443822751	127	2764.52339170354	308.915680032795	126	849.803380295116	2499.54200344704	134.004650252251	4098.65016211412
360.64224285826	139.549742458147	773.32265658229	1669.55113585009	175.898119622694	2457.10507733602	1069.61301157637	138.011749802608	2136.69142773074	1775.7202065016	146.778859701044	2506.31400921186	1646.13653584528	127	3512.01652946703	1499.69428019916	135.384263467298	2177.77775887078	791.73007847666	125	1610.28721259014	1352.20427988853	144.817841337552	1940.82199517129	1214.85563044077	138.307644538424	2350.40875480252	1855.16946914631	159.743607385931	2660.58350049557	1409.97143279411	137	2557.79355654867	1379.50311548986	138	1922.7280928349	895.679923464316	126.001327222897	2168.11336596315	1519.07821486817	127	2754.04890762535	308.99476067763	126	851.146529270341	2495.54161189614	134.001327222897	4098.22968920418
360.540727369821	139.523580900189	773.307556888837	1668.94807037373	175.790609503653	2455.24474610537	1069.77824668943	138.004650252251	2138.04160973404	1779.50096024698	146.684877040245	2514.42194579846	1643.17325528907	127	3507.26973798386	1499.71540926995	135.315276620298	2179.19970096707	790.054043623232	125	1607.70234114159	1351.76969802224	144.789670662293	1941.57193208068	1211.97835133413	138.276936582107	2347.21487125737	1857.61657358914	159.678837513898	2666.90369023444	1408.3213908892	137	2557.60960210983	1376.9368847046	138	1920.42692603664	894.115243786081	126	2167.56368130658	1511.7655114442	127	2743.00232107964	309.110565949509	126	852.798171126994	2491.12631354725	134	4098.11154456014
360.474909891632	139.494220846619	773.428220641829	1668.67885844247	175.673127237637	2453.88212157216	1070.0377346821	138.001327222897	2139.66163686666	1783.47881192394	146.583009080793	2522.77487734171	1640.52125478544	127	3504.00685799378	1499.78696756478	135.257284255818	2180.84281945719	788.587973379544	125	1606.03641616536	1351.68196449471	144.779392706135	1943.18620437142	1209.62415851446	138.270003248089	2345.28559811924	1859.46438712369	159.62583724118	2672.35003532625	1406.83124088343	137	2557.64783710727	1374.87774696012	138	1918.47987571213	892.719720525405	126	2167.80657606961	1504.45224305453	127	2732.0321977184	309.251306780671	126	854.658078896825	2486.54936639582	134	4098.39571570941
360.446930850162	139.464547325293	773.742972650775	1668.81058212855	175.542829803978	2453.36040300611	1070.35987413085	138	2141.57064055009	1787.36632439286	146.481493592353	2530.77528545543	1638.48478569221	127	3502.94323918264	1499.9618125969	135.21228581064	2182.64776537882	787.513090971333	125	1605.68116606046	1352.07049115712	144.791422125483	1945.7760989549	1208.02901521369	138.282660065481	2344.96165046893	1860.42556290615	159.591261375713	2676.28728208604	1405.60114366777	137	2557.90637947476	1373.50166361048	138	1916.97662041004	891.576715693881	126	2168.81072194071	1497.6191612181	127	2721.74016938525	309.399269203673	126	856.585990929924	2482.03693447472	134	4099.15401184634
360.452532361625	139.436119888913	774.278420582496	1669.33952055564	175.399263641452	2453.91010593028	1070.69716381143	138	2143.73537011154	1790.87784569585	146.389356911376	2537.86635926183	1637.27309070329	127.001327222897	3504.46735020878	1500.28975725888	135.181744070663	2184.56194639216	786.952085177033	125	1606.82964354958	1353.00068171654	144.825743861233	1949.31491725315	1207.30748856092	138.305893213177	2346.32896200106	1860.34862915481	159.578179543034	2678.2895813353	1404.69799513637	137	2558.35575676179	1372.88274317734	138	1915.94195367194	890.724211397273	126	2170.40211312355	1491.65069062858	127	2712.5632381397	309.535717835767	126	858.41820870741	2477.75572776099	134	4100.40998739852
360.481493592353	139.407151047505	775.016867393009	1670.18333360239	175.244642811461	2455.56872586808	1070.99048589344	138	2146.05504969792	1793.77906588569	146.312844477645	2543.61017550936	1636.94511880443	127.004650252251	3508.52946984781	1500.79554806071	135.164610907414	2186.54001773722	786.937595932616	125	1609.42088782205	1354.45056605333	144.877671040771	1953.62720671252	1207.43600253139	138.329165019064	2349.18468281467	1859.25821827444	159.585134469839	2678.21392512216	1404.15005397066	137	2558.94060818638	1372.98565752006	138	1915.3353198844	890.15073275741	126	2172.28376986589	1486.78148788256	127	2704.69889372544	309.645204102502	126	859.992185587901	2473.7977705229	134	4102.12263361946
360.51717918475	139.376267468017	775.896946603486	1671.18311517256	175.082403674188	2458.13652075561	1071.17755107574	138	2148.36212398283	1795.91727294729	146.256218890783	2547.72897990974	1637.39377563252	127.011749802608	3514.6163038267	1501.46656425635	135.159532940102	2188.52208666199	787.405071161017	125	1613.13650573248	1356.30802217756	144.938843073884	1958.39867685099	1208.26510136075	138.342739812132	2353.08479452782	1857.34171051131	159.604603562277	2676.22938797947	1403.93934825464	137	2559.5982393094	1373.67666267664	138	1915.07564609069	889.808322903816	126	2174.10025263302	1483.08144694223	127	2698.11298439997	309.719203721112	126	861.176036175055	2470.18807897316	134	4104.17998496882
360.541490163227	139.341542171824	776.818490360787	1672.13137672711	174.917596325812	2461.17609438952	1071.20078006758	138	2150.42994866294	1797.2385684384	146.221233774555	2550.10608335297	1638.38435942917	127.023779221956	3521.84659243411	1502.25942334758	135.164110268507	2190.42014967219	788.21618387112	125	1617.45872880771	1358.39787365696	144.999201833851	1963.22194067678	1209.56656015025	138.34328121716	2357.45414809902	1854.91209880145	159.628103305436	2672.77625321563	1404.01874897606	137.001327222897	2560.28279212261	1374.765259463	138.001327222897	1915.07350553197	889.631847896452	126	2175.53816717475	1480.48265759355	127	2692.63203554114	309.757809393935	126	861.903682310248	2466.91661306248	134	4106.43245926411
360.537996317876	139.302837244767	777.666993424341	1672.81975872798	174.755357188539	2464.0995681044	1071.02213362391	138	2152.02568244457	1797.7888862603	146.206667143722	2550.78931552121	1639.61040156921	127.04072345119	3529.16108089733	1503.10670177141	135.175583223722	2192.11401997964	789.18890513125	125	1621.78317383053	1360.51535559144	145.049394705655	1967.66967793411	1211.09069562886	138.330375077225	2361.7213456313	1852.32951478672	159.645485619126	2668.45843234041	1404.31880029649	137.004650252251	2560.978846717	1376.04330544352	138.004650252251	1915.25477015846	889.561361695122	126	2176.40500799188	1478.82795007896	127	2688.05053944179	309.769030139796	126	862.186494661731	2463.96617427897	134	4108.70968017481
360.495538558952	139.26225841713	778.341035066636	1673.09244747086	174.602063581445	2466.30977290482	1070.63291628463	138	2152.96916115671	1797.70122480963	146.210508860428	2549.97578389575	1640.78271681339	127.061156926116	3535.56617002226	1503.94149864896	135.191454359776	2193.47141228204	790.147201741943	125	1625.552032343	1362.47522412744	145.082930693109	1971.37834565777	1212.62575989905	138.309931232903	2365.44878484305	1849.92330789265	159.649348015681	2663.91617106747	1404.76575401824	137.011749802608	2561.7067389104	1377.33124266987	138.011749802608	1915.57515251392	889.554959139946	126	2176.67530716213	1477.93011560077	127	2684.22462119631	309.764638686493	126	862.108993299298	2461.33832736888	134	4110.8333661152
360.412497234789	139.224992385057	778.774285975183	1672.88836907356	174.464474894067	2467.3500729903	1070.0582360011	138	2153.18179875021	1797.16594460203	146.230969860204	2547.97911112784	1641.6971984451	127.082403674188	3540.36827384387	1504.72005532394	135.208592330198	2194.3881732541	790.959727944644	125	1628.37687947691	1364.14852081062	145.097497323942	1974.12523867221	1214.04373725335	138.287898736535	2368.41545939128	1847.93906949763	159.636807657603	2659.69638966627	1405.30482661064	137.023779221956	2562.50961687114	1378.51986022217	138.023779221956	1916.01957413418	889.600874834597	126	2176.50573781314	1477.62834875135	126.998672777103	2681.14850955365	309.755687953231	126	861.807167610834	2459.0707386107	134	4112.65788794596
360.297383264146	139.194911778893	778.959678612401	1672.26013314123	174.349250292369	2467.06154921564	1069.35696245036	138	2152.74015819933	1796.39703121056	146.265715836247	2545.22064371803	1642.28934238778	127.101082211157	3543.31870142628	1505.44959639609	135.224209336535	2194.83094744421	791.567828025908	125	1630.10933326887	1365.49461682567	145.095104736009	1975.87023444366	1215.30566949884	138.270033472713	2370.63158471147	1846.50340456842	159.60945025549	2656.1822136189	1405.8987350946	137.04072345119	2563.43892861654	1379.56424736324	138.04072345119	1916.58882936834	889.707379133766	126	2176.1686317186	1477.80500050593	126.995349747749	2678.92446422242	309.748588402874	126	861.43140565234	2457.21814767416	134	4114.07874134123
360.165584884303	139.176114328927	778.946389360993	1671.3589154565	174.262646798667	2465.63528613028	1068.61374370313	138	2151.87236734354	1795.61225351608	146.312463706787	2542.21253080705	1642.61638422409	127.113897378801	3544.61555423779	1506.18918650961	135.236211231033	2194.87752547907	791.978159530331	125	1630.83528030933	1366.54879706543	145.081076451291	1976.74587265264	1216.43737980208	138.26025231085	2372.25656681281	1845.64456641151	159.574035629855	2653.57291056822	1406.53184984278	137.061156926116	2564.51537537873	1380.48133972247	138.061156926116	1917.27812635677	889.889911456034	126	2175.9889946382	1478.37782169996	126.988250197392	2677.71441581599	309.743513910331	126	861.115057589929	2455.82878904635	134	4115.05067848541
360.036327190714	139.17068556929	778.83217482803	1670.39055824106	174.209216773061	2463.59289177317	1067.92141119644	138	2150.92870856218	1794.99620658823	146.36857366521	2539.51091055271	1642.82732941306	127.118459717673	3544.81018372581	1507.03775028825	135.242914065948	2194.71616525401	792.248346704335	125	1630.81974667516	1367.40660417292	145.061156926116	1977.01428742034	1217.48652265306	138.258074811288	2373.53391978046	1845.32131930385	159.539573870211	2651.91583617507	1407.19800403559	137.082403674188	2565.73394589782	1381.32935754492	138.082403674188	1918.08494081499	890.160579490963	126	2176.26719616757	1479.28338388128	126.976220778044	2677.66217094709	309.734284163753	126	860.955206170431	2454.91594750952	134	4115.59578849763
359.928407287061	139.177334686911	778.740257208107	1669.56171806515	174.190087803355	2461.66748330411	1067.3642122148	138	2150.31457900282	1794.68064020778	146.429020338555	2537.65047517342	1643.10802053048	127.113897378801	3544.66260658701	1508.1052472089	135.244736287061	2194.61991791398	792.460476873762	125	1630.43263729488	1368.1873534229	145.04072345119	1976.99923235865	1218.49306445842	138.261048428542	2374.69967575521	1845.44561639221	159.514485405433	2651.1363071629	1407.89186841498	137.101082211157	2567.05551762542	1382.17964066505	138.101082211157	1919.0047747819	890.516921551439	126	2177.21354351285	1480.45675780113	126.95927654881	2678.82849464644	309.713052522678	125.998672777103	860.999251716703	2454.44904949882	134	4115.77988942243
359.855850329576	139.192781582672	778.794276280764	1669.03379844032	174.202794377772	2460.63302762849	1067.00358106918	138	2150.40966459787	1794.73131297658	146.489099481782	2537.05865618785	1643.62085278134	127.101082211157	3544.98429223435	1509.47720426766	135.244456670321	2194.91021610459	792.691883457754	125	1630.06650635976	1368.99580403039	145.023779221956	1977.0255939347	1219.46091333954	138.265978227959	2375.9216242239	1845.91135012517	159.505268007136	2651.08908329674	1408.59978343581	137.1138973788	2568.42700430744	1383.10113469451	138.113897378801	1920.0485582287	890.939452399119	126	2178.91184867468	1481.8167553795	126.938843073884	2681.14855295728	309.672329071488	125.995349747749	861.250647955058	2454.35144676383	134	4115.69270331259
359.825549458097	139.21149111926	779.08867037991	1668.89345468464	174.242719662813	2461.11424860564	1066.8656030288	138	2151.48113205031	1795.13690906929	146.544403407969	2537.96189769471	1644.47017122048	127.082403674188	3546.46809896979	1511.18408130558	135.247020143824	2195.8787587047	793.001171765691	125	1630.06028984769	1369.89635451393	145.011749802608	1977.34865363897	1220.35725958125	138.269565884521	2377.28672475471	1846.60560958696	159.513158182536	2651.59344248782	1409.29835311575	137.118459717673	2569.81092272074	1384.15108970438	138.118459717673	1921.25724361113	891.396299420328	126	2181.32028174333	1483.27085835807	126.917596325812	2684.43649339238	309.609951787388	125.988250197392	861.678605224351	2454.52071207659	134	4115.43235625624
359.838276712363	139.228056615462	779.676531998192	1669.15101011201	174.30185979311	2463.46041928327	1066.94387551799	138	2153.63634229373	1795.82124980173	146.592050786346	2540.34072841078	1645.67587989344	127.061156926116	3549.58446961468	1513.18067449215	135.258611478715	2197.72113976092	793.413652872398	125	1630.65499834536	1370.89174171527	145.004650252251	1978.11744287877	1221.12750440238	138.27053500461	2378.79919473265	1847.41619219745	159.536250840857	2652.45793228537	1409.95784430192	137.113897378801	2571.19853678352	1385.36414065304	138.113897378801	1922.69936978989	891.850035029324	126	2184.28305841728	1484.72958819112	126.898917788843	2688.41312085599	309.52967830942	125.976220778044	862.231197640831	2454.85573066899	134	4115.08074281084
359.886994262949	139.24008603481	780.555889098915	1669.74084423277	174.372420944138	2467.66059249687	1067.19420108793	138	2156.79289643155	1796.65041005038	146.631447014639	2543.91722679456	1647.1814919003	127.04072345119	3554.48548811611	1515.35557179874	135.285192539364	2200.48145149238	793.925852569075	125	1631.95276550045	1371.93238874614	145.001327222897	1979.34257302333	1221.70909734007	138.268422033417	2380.38286336452	1848.23742303928	159.568263302394	2653.49995782145	1410.54389199269	137.101082211157	2572.60965244188	1386.74895742182	138.101082211157	1924.45585785798	892.265428520187	126	2187.57676056499	1486.11661328751	126.886102621199	2692.76141088831	309.44209736406	125.95927654881	862.852814684631	2455.27864133124	134	4114.6990254122
359.959646999898	139.246237095302	781.670978852439	1670.5491717289	174.445070622175	2473.35232338677	1067.54836905673	138	2160.69461775127	1797.46403122737	146.665412754981	2548.21278315622	1648.85396456136	127.023779221956	3560.97533083415	1517.53703599154	135.331973447351	2204.03254257916	794.50183262022	125	1633.9039525797	1372.91601155661	145	1980.90101889991	1222.05242862992	138.266260010622	2381.92350719203	1848.99010010742	159.60339831129	2654.59310017509	1411.02763346737	137.082403674188	2574.1022513411	1388.28866673702	138.083730897085	1926.61236447971	892.618652377947	126	2190.97150678625	1487.38547761526	126.881540282327	2697.20111519384	309.363729009824	125.938843073884	863.506365693564	2455.75399746288	134	4114.34646133124
360.043007445895	139.249288256538	782.924321812369	1671.44348083521	174.513422878113	2479.89571690108	1067.92500703445	138	2164.96086046504	1798.11445860812	146.697162755233	2552.6444770601	1650.52037942109	127.011749802608	3568.55033540304	1519.53276299719	135.399779491087	2208.09070920627	795.085180184554	125	1636.32525318031	1373.71828006173	145	1982.56584579899	1222.12478329112	138.265967928137	2383.29519980995	1849.61887523833	159.636263483228	2655.67708614952	1411.37998704119	137.061156926116	2575.75342578929	1389.93455526869	138.067134401264	1929.23276433318	892.898652248678	126	2194.27149391664	1488.5163810354	126.886102621199	2701.5273558179	309.312670754359	125.917596325812	864.175556347577	2456.28270003691	134	4114.05640140369
360.124960687347	139.253966033639	784.197613720934	1672.30994300883	174.571782772711	2486.51420665827	1068.25015761919	138	2169.16793755709	1798.50415448269	146.730786656065	2556.65446929107	1651.99338507088	127.004650252251	3576.50713677176	1521.15810829509	135.486143844604	2212.27359394771	795.608211190237	125	1638.94266993544	1374.20988001743	145.001327222897	1984.05827067959	1221.91943329166	138.269736700518	2384.39869217454	1850.09682658768	159.664443565319	2656.76996228754	1411.57538447392	137.04072345119	2577.6415599971	1391.61440537209	138.057123506049	1932.34727651784	893.111066232838	126	2197.36193271642	1489.52392706308	126.898917788843	2705.66566005546	309.304501031792	125.898917788843	864.873665060817	2456.90320761399	134.001327222897	4113.85102900705
360.197177843149	139.26438861335	785.371291751331	1673.08126043097	174.616527088172	2492.45367538831	1068.46943743739	138	2172.92305374946	1798.61176395387	146.768620355184	2559.81254014278	1653.11108732964	127.001327222897	3584.08967481047	1522.27557227605	135.58433630369	2216.17932839892	796.006821133928	125	1641.45356200902	1374.28510783537	145.005977475148	1985.10976346227	1221.45171031626	138.280265311625	2385.19707568863	1850.42379429516	159.6887415442	2657.9657418625	1411.59480938057	137.023779221956	2579.83694166394	1393.24959135941	138.060635469417	1935.94979028772	893.278695171771	126	2200.22496940044	1490.45448571895	126.917596325812	2709.67492320315	309.34952700182	125.8861026212	865.635057453152	2457.68211079159	134.004650252251	4113.73192707678
360.258790764224	139.284817281102	786.355650175325	1673.76297621758	174.647230237314	2497.15997961553	1068.56563534478	138	2175.9608389398	1798.51096193174	146.810536639507	2561.92540859572	1653.76421955284	127	3590.65585845942	1522.81926202515	135.684877040245	2219.47348083599	796.230971949925	125	1643.5963000482	1373.87862235868	145.017727277756	1985.52240047269	1220.75248290007	138.297209540859	2385.72896359427	1850.61477418594	159.711305145774	2659.40879031475	1411.42733003504	137.011749802608	2582.39079585328	1394.76778251688	138.080902728005	1940.00549590965	893.437092054557	126	2202.93322561037	1491.38035742267	126.938843073884	2713.72545247327	309.450609212976	125.881540282327	866.501350217668	2458.69497846027	134.011749802608	4113.6741346468
360.314587047375	139.315390020699	787.111602361631	1674.4300305863	174.664723182059	2500.41532221362	1068.55912536285	138	2178.20379628364	1798.35459059444	146.855112176798	2563.08771221529	1653.9242944943	127	3595.81766375784	1522.81760833794	135.778859701044	2221.96544889323	796.258208162286	125	1645.20629857621	1372.98140584943	145.041506499712	1985.20773125636	1219.85792518796	138.319143824026	2386.10080822855	1850.70298064582	159.735348994938	2661.26626484932	1411.07976396964	137.004650252251	2585.33070499018	1396.13299710605	138.118280432165	1944.46784551631	893.624938020183	126	2205.62906031568	1492.3836518825	126.95927654881	2718.06217436732	309.601884295937	125.8861026212	867.509500533247	2459.99708155686	134.025106444853	4113.63537857075
360.373439298937	139.353716214724	787.656771085361	1675.20768176337	174.672061872601	2502.38197128027	1068.50331145127	138	2179.77422491184	1798.34509997667	146.898119622694	2563.65564255448	1653.63794310623	127	3599.50966288569	1522.38136003737	135.857940345879	2223.64599925946	796.093670352024	125	1646.24474279199	1371.63659131457	145.082229950902	1984.20208575938	1218.79466195955	138.345048572971	2386.45843803516	1850.72092270895	159.765385239208	2663.68819950606	1410.57299668158	137.001327222897	2588.66109324028	1397.34824739166	138.169994268055	1949.29794649023	893.878244556044	126	2208.48255199931	1493.54512289283	126.976220778044	2722.93694820688	309.79099788519	125.898917788843	868.678840093087	2461.61349329234	134.046700926337	4113.5544621373
360.444805461116	139.394069214826	788.061176025325	1676.23079322553	174.675231946834	2503.55788566576	1068.47007578784	138	2180.96669814951	1798.68544656989	146.936824549751	2564.17146315338	1653.02268547377	127	3602.01999501905	1521.68704164004	135.917770049098	2224.70421189155	795.770621461918	125	1646.81346366828	1369.93629433146	145.143386877018	1982.67210044271	1217.58048832163	138.370665251132	2386.95723397152	1850.7073536666	159.803698947011	2666.78100461569	1409.95152756199	137	2592.37698038452	1398.46892799369	138.228859588786	1954.48078094377	894.219486940798	126	2211.64741047163	1494.9237242514	126.988250197392	2728.54565657896	310.001327222897	125.917596325812	870.000191880298	2463.52078371748	134.077556980975	4113.36186263244
360.534936035814	139.431050203544	788.430016811341	1677.5991986483	174.681496766866	2504.63704654694	1068.52790328177	138	2182.17492377059	1799.52969346603	146.969121227686	2565.23427553197	1652.24185214954	127	3603.91787928685	1520.93867100256	135.958493500288	2225.48878218989	795.344455113319	125	1647.12857630255	1368.00417986853	145.225790551206	1980.88886664558	1216.22297309927	138.395396437723	2387.72758689422	1850.70323141855	159.854160917586	2670.58430739355	1409.27748137634	137	2596.46928475214	1399.58836406083	138.289213541579	1960.03017674545	894.652082448489	126	2215.21817510734	1496.54319457492	126.995349747749	2734.97160209254	310.214979589957	125.938843073884	871.437760569444	2465.64699853906	134.11925992165	4112.98451528685
360.644530895776	139.458495519035	788.871054176704	1679.33979993782	174.699381619879	2506.30892652397	1068.72568690396	138	2183.78225491104	1800.93915197305	146.995349747749	2567.34459203631	1651.46830153923	127	3605.91330083447	1520.32296617634	135.982272722244	2226.42583584219	794.88100070761	125	1647.47113568681	1365.96972024205	145.326872762363	1979.18042403177	1214.7226414704	138.416096973593	2388.85695179705	1850.74216286879	159.917052151437	2675.07161973603	1408.61591602128	137	2600.93229758297	1400.80776363937	138.343190244869	1965.97966909648	895.157062503155	126	2219.1990871234	1498.38269010925	126.998672777103	2742.15594731916	310.415842981819	125.95927654881	872.928982912855	2467.87794006851	134.170235136553	4112.36081651831
360.76596590939	139.474293710764	789.475618579364	1681.38430617366	174.736818537522	2509.0927197456	1069.07352633117	138	2186.08059933533	1802.85827123279	147.017801746809	2570.79843966169	1650.84680890016	127	3608.67194471854	1519.96644802841	135.994022524852	2227.91453608952	794.441249094551	125	1648.11830489125	1363.94284890429	145.440770141163	1977.86752669941	1213.08090275107	138.431286264869	2390.36835742386	1850.84273603047	159.991316327682	2680.14510035738	1408.02066239551	137	2605.74747162632	1402.20307473405	138.385912561428	1972.35060980189	895.693710539198	126	2223.49224977474	1500.3775029148	127	2749.89721914991	310.590897286735	125.976220778044	874.394877301691	2470.07480788645	134.228854781612	4111.44078060071
360.886164672399	139.47980148059	790.292607340316	1683.56478915697	174.798788736784	2513.19504371589	1069.53361557843	138	2189.19243249679	1805.11064197292	147.039396228293	2575.61292201253	1650.46812310933	127	3612.65240752845	1519.90948091425	135.998672777103	2230.2294050039	794.071172490583	125	1649.2844729287	1361.99412644924	145.559229858837	1977.2031681362	1211.3042807328	138.44024678458	2392.22590543054	1850.99863468907	160.074513568361	2685.65114336392	1407.52050940273	137	2610.86690911327	1403.79620403497	138.415140339727	1979.12061605223	896.208787506184	126	2227.92854282127	1502.43203256396	127	2757.90618896083	310.732702949082	125.988250197392	875.759015364587	2472.10483243908	134.291777015081	4110.22086068597
360.989189038751	139.478036173236	791.319250024286	1685.64137183398	174.884072756211	2518.46780081988	1070.02653223965	138	2193.04259004556	1807.43199669291	147.062484149013	2581.53035685917	1650.346580701	127	3617.96718406057	1520.0976974011	136	2233.44191528789	793.788667636197	125	1651.06156559332	1360.13848581078	145.673127237637	1977.31121601589	1209.40454530305	138.441472783255	2394.3369745636	1851.1657785945	160.160504829538	2691.38116899045	1407.10155675694	137	2616.18367431299	1405.52984110954	138.429722980647	1986.18406108065	896.642222144735	126	2232.29660782636	1504.42949481557	127	2765.85737872836	310.838885845226	125.995349747749	876.96116884415	2473.85346873272	134.355833993091	4108.73651465263
361.059418670039	139.474306128618	792.503197311237	1687.35430724608	174.986777747519	2524.44587285262	1070.44875632307	138	2197.38070240076	1809.52888406031	147.088381149336	2588.08657170027	1650.41546741857	127	3624.35629019275	1520.38867233192	136	2237.40302959144	793.578265467377	125	1653.40543099905	1358.33261279823	145.772882225897	1978.16616079044	1207.3966447782	138.437424394134	2396.56226766938	1851.25928792552	160.243315588564	2697.0773161735	1406.70633870477	137	2621.50613964988	1407.26512401733	138.431446918986	1993.3235966238	896.938402153979	126	2236.39471484364	1506.24877196798	127	2773.4537446077	310.911792573951	125.998672777103	877.970927154464	2475.24609631285	134.418725226942	4107.08054825929
361.085624472426	139.471498727703	793.74908688598	1688.4749889286	175.095737598757	2530.44418761781	1070.69476731373	138	2201.82233617466	1811.13440344655	147.117482266015	2594.69844767112	1650.54087472105	127	3631.22788253736	1520.58349309951	136	2241.76531923779	793.392458693786	125	1656.13682595818	1356.48590492878	145.851962870731	1979.59185322839	1205.29943313687	138.430347561452	2398.7411984356	1851.16142250994	160.317839456748	2702.44255317288	1406.23885302525	137	2626.56062990447	1408.80295952175	138.423042863408	2000.21261540696	897.055753255931	126	2240.05442373403	1507.77616633207	127	2780.44873936811	310.955839054494	126	878.787568912299	2476.25506182615	134.479394395752	4105.38031974811
361.066942460689	139.472432228037	794.939169309878	1688.87387940987	175.199627141255	2535.7134476737	1070.6898815176	138	2205.93116629156	1812.08289103524	147.149426403365	2600.78799825972	1650.54678634488	127	3637.76542329907	1520.46695482261	136	2246.04735253986	793.161349736888	125	1658.97103706185	1354.4812497311	145.904693023593	1981.29071191923	1203.13377301564	138.42489900511	2400.70301243131	1850.73436426347	160.377485788174	2707.14447434035	1405.58048656586	137	2630.9998045708	1409.91232586824	138.407171727354	2006.42819326233	896.969496458539	126	2243.15624548847	1508.91347121805	127	2786.64772878193	310.976295247097	126	879.428230197649	2476.8943603433	134.536655887868	4103.77970764002
361.00912098178	139.477369337937	795.953790710253	1688.5474079541	175.287634830216	2539.60240714951	1070.40661711931	138	2209.30328519102	1812.33370295686	147.182962390819	2605.88637417816	1650.24880009055	127	3643.10068641178	1519.85391685643	136	2249.73550882898	792.804056011053	125	1661.57392894598	1352.20786451455	145.930064026081	1982.90575422044	1200.92423302558	138.425816911213	2402.28556066908	1849.85257073338	160.419161203998	2710.84339616798	1404.61582373542	137	2634.45143986492	1410.3795257076	138.385637634398	2011.50952250563	896.674684794285	126	2245.62591916417	1509.58416549096	127	2791.89012930536	310.9749680242	126	879.916846567554	2477.2073226041	134.589413496006	4102.42379029464
360.924340542708	139.485252957903	796.695599396566	1687.61533316619	175.353354025632	2541.69757838244	1069.86566029105	138	2211.64262170029	1811.96910253865	147.215777756107	2609.71270210183	1649.50079291084	127	3646.45910625619	1518.63697636191	136	2252.3754000238	792.252227493843	125	1663.61053480598	1349.59817211356	145.929799468446	1984.07719027967	1198.7040953048	138.435321584821	2403.35405926254	1848.4364027823	160.439622203775	2713.23642828301	1403.26386413773	137	2636.58710967567	1410.05849594459	138.359069109067	2015.03393847619	896.181612350536	126	2247.41626826133	1509.73270849816	127	2796.02068651635	310.951188802244	126	880.261456000825	2477.24248108887	134.634870309581	4101.42909922862
360.827122835506	139.492964381646	797.101654943143	1686.2942647405	175.39326901085	2541.89986570062	1069.13256278052	138	2212.80753136096	1811.17087758755	147.244642811461	2612.20606197695	1648.22142820664	127	3647.28404774992	1516.81275003691	136	2253.64704603817	791.459827986276	125	1664.79295335991	1346.65065360588	145.907759153883	1984.49789104737	1196.51266993176	138.452799560511	2403.79761428818	1846.46965460888	160.439188926492	2714.09483264417	1401.49385988898	137	2637.17548300057	1408.89766168328	138.327139961249	2016.69369687944	895.51154610614	126	2248.49647026525	1509.33336164062	127	2798.88341518199	310.900042771343	126	880.448297829218	2477.04154467206	134.668471423165	4100.8841045535
360.728154927947	139.499400155617	797.157351823487	1684.83100240661	175.408760586916	2540.43563894942	1068.29113848728	138	2212.83346454357	1810.16053908995	147.265889559533	2613.51759639411	1646.42541541937	127	3645.32822166509	1514.49581470229	136	2253.42034727694	790.422644456984	125	1664.92403146483	1343.45355160495	145.870895399474	1983.96566930556	1194.39731872435	138.473497593073	2403.53507175771	1844.02012407663	160.419697116378	2713.30756289985	1399.34430279364	137	2636.13367521963	1406.96404518489	138.289213541578	2016.36060107057	894.692113363212	126	2248.83350043505	1508.3885988553	127	2800.31951989588	310.813779400373	126	880.434556863681	2476.62404454126	134.684612748648	4100.81569669091
360.632560827853	139.502456124027	796.887466792238	1683.44672539306	175.402231696484	2537.76940128081	1067.42601824765	138	2211.89729359878	1809.14898528891	147.276136516073	2613.93574052183	1644.21368329048	127	3640.68497526747	1511.89141058436	136	2251.7706801105	789.176522785647	125	1663.92520189768	1340.1688517714	145.824683837222	1982.41570263068	1192.41407964258	138.490879906763	2402.52324997609	1841.23685339868	160.385147443356	2710.90968030811	1396.91982104846	137	2633.55154394733	1404.43307258609	138.246237095302	2014.12135469855	893.760679062461	126	2248.40271492377	1506.94508526463	127	2800.2116111481	310.687329245641	126	880.165005662208	2476.00922074458	134.67797393085	4101.20248950553
360.539224098971	139.502717622749	796.34637628144	1682.28545750488	175.379257881586	2534.47124804627	1066.60223662991	138	2210.26443646002	1808.29036421146	147.273080547663	2613.79311219161	1641.75906215129	127	3633.74619557558	1509.25822538802	136	2248.94301941604	787.794579672744	125	1661.84060185347	1337.01149542809	145.773942249907	1979.92143331679	1190.62518927848	138.498871236812	2400.74856023416	1838.32920700315	160.340639189219	2707.07445181211	1394.3763526953	137	2629.66553369071	1401.55823845209	138.20016074977	2010.25813431875	892.757115033786	126	2247.18294100837	1505.08405524027	127	2798.49786740673	310.516663335114	126	879.57864892387	2475.2053851292	134.645104848268	4101.95193463739
360.441297160084	139.501839153902	795.607417890685	1681.3949517706	175.343874305195	2531.08125364484	1065.85634473086	138	2208.23040381014	1807.65543190153	147.25613631843	2613.38219427894	1639.25867102834	127	3625.12377227401	1506.84061660272	136	2245.28995079432	786.368950639859	125	1658.824357738	1334.19682081098	145.722007342225	1976.67059260191	1189.09156803133	138.492972247733	2398.24769497334	1835.52937606189	160.291232065711	2702.10902517773	1391.89108506179	137	2624.83345684569	1398.62309611685	138.154882687852	2005.21432101748	891.726753991045	126	2245.18173991154	1502.92809458857	127	2795.22353075425	310.305009833423	126	878.634376654546	2474.23952779891	134.586863866668	4102.92143954479
360.328876968758	139.501687927094	794.741473335902	1680.72132166178	175.299396981105	2527.98654678836	1065.1891409993	138	2206.04637772774	1807.21997627211	147.226729392565	2612.86992788427	1636.89272227236	127	3615.52831735426	1504.81904659112	136	2241.189665134	784.994143777097	125	1655.10818076216	1331.8958246709	145.669541816571	1972.91759558842	1187.86700386795	138.474814901425	2395.10420736626	1833.05678445164	160.241042668676	2696.40457176568	1389.6355902134	137	2619.46998467697	1395.89336464068	138.116810623543	1999.51325360518	890.719648833625	126	2242.45800449247	1500.63239266679	127	2790.56800042693	310.061424125002	126	877.328927143958	2473.16315190004	134.506756605039	4103.95501739709
360.194087750564	139.503407245297	793.807117512006	1680.14140837672	175.24664418014	2525.35518799172	1064.57587838224	138	2203.87985579248	1806.88852162995	147.188136137596	2612.27648528951	1634.78384965434	127	3605.64853242689	1503.26881801364	136	2236.96718213106	783.746178381011	125	1650.96075782482	1330.19575195337	145.61582444608	1968.92764021551	1186.98499868354	138.447852536066	2391.45115130917	1831.06819386689	160.192781582672	2690.39117307882	1387.73719519546	137	2613.98954593674	1393.5636212371	138.09063400648	1993.68312824662	889.786837327339	126	2239.13134883044	1498.36679957039	127	2784.83786716794	309.801166473127	126	875.70348989835	2472.04692087599	134.413667889854	4104.89324712278
360.031667427899	139.507015334414	792.842623259751	1679.49646584655	175.185598856538	2523.1356196911	1063.9723702562	138	2201.79910797927	1806.5224041362	147.144887823201	2611.49768975711	1632.98520394357	127	3596.07278880803	1502.15622212864	136	2232.85703973763	782.673641401533	125	1646.65519007913	1329.08547430562	145.559229858837	1964.93766294817	1186.45810519711	138.420336666237	2387.46630585324	1829.6501776252	160.147783137494	2684.49103381711	1386.2726430648	137	2608.76133434064	1391.74411671069	138.080902728005	1988.1843149059	888.975241388269	126	2235.39831001766	1496.29873801797	127	2778.47069553667	309.544760789888	126	873.846719958718	2470.9629598704	134.318445989109	4105.62633967834
359.840560801536	139.510341492254	791.861257541587	1678.6353642752	175.114416135726	2521.08191868928	1063.33206231222	138	2199.77033145262	1805.98386121514	147.101880377306	2610.33949879475	1631.4748380256	127.001327222897	3587.21532699361	1501.35433267304	136	2228.97505474212	781.79166656846	125	1642.42938991343	1328.46253624149	145.49807293272	1961.11756898393	1186.27109713728	138.400059107827	2383.36698357866	1828.80527576541	160.107510119041	2679.09097090756	1385.25225854345	137	2604.08404111491	1390.44374437642	138.089609117999	1983.367717113	888.328280132261	126.001327222897	2231.52562909283	1494.58271592306	127	2772.00159023288	309.312670754359	126	871.878754753918	2469.97674639691	134.234217324461	4106.10554817655
359.625233478166	139.511782045978	790.852277196928	1677.45524546639	175.033540725055	2518.8576551194	1062.61841459985	138	2197.69437698386	1805.1886952266	147.064502673146	2608.61904826912	1630.19270163597	127.004650252251	3579.34125191277	1500.69291799509	136	2225.35191007692	781.094509443818	125	1638.48170946808	1328.17627687088	145.431540394586	1957.59090093002	1186.39487680017	138.392067708205	2379.40576470325	1828.48727398002	160.072906728724	2674.54733095204	1384.64270773463	137	2600.19302154599	1389.59721205928	138.113630179914	1979.4614628772	887.880228231926	126.004650252251	2227.83274856974	1493.34345787273	127	2766.026485338	309.12214202883	126	869.927220019708	2469.12361975802	134.170489128328	4106.35871729927
359.392741991929	139.509289078923	789.794680208785	1675.9215927833	174.944081744938	2516.14444333012	1061.81508089903	138	2195.46195586178	1804.13168859396	147.035529024564	2606.25625276226	1629.0715499701	127.013077025505	3572.59375480031	1500.00933780947	136	2221.97429520442	780.564335381968	125	1634.96463336828	1328.07231827791	145.360396331964	1954.45055305158	1186.79702338769	138.400059107827	2375.85628486915	1828.6336766809	160.045373703441	2671.19162045344	1384.387935925	137	2597.27424333467	1389.09984321006	138.148210852555	1976.58750886282	887.654888179099	126.011749802608	2224.65795197524	1492.67676590274	127	2761.15172009528	308.983153194708	126	868.101304031846	2468.39699991958	134.1347032047	4106.46723523117
359.152228242058	139.502110952446	788.662041935031	1674.07209049645	174.848727616813	2512.724785824	1060.93010892183	138	2192.9943325205	1802.90128309127	147.016400054859	2603.32453055305	1628.06970992054	127.028429474207	3567.05465546948	1499.19509153437	136	2218.83341074503	780.184299605317	125	1631.99014154183	1328.03737596997	145.288541899106	1951.78573759136	1187.44820783488	138.421663889134	2372.99555538201	1829.19930159364	160.02643366775	2669.35283311289	1384.43168206764	137	2595.48961707837	1388.84419617188	138.186140331139	1974.79901389231	887.664736691883	126.023779221956	2222.32969182486	1492.65081938122	127	2757.95741987565	308.89515864449	126	866.473318270233	2467.75635505755	134.126442647784	4106.55144404446
358.910947208191	139.490584349509	787.437870972995	1671.99869813559	174.749898470316	2508.56026051857	1059.99178663643	138	2190.29521102622	1801.66461981401	147.005977475148	2600.09413352264	1627.19625804682	127.052473253798	3562.79452896136	1498.22788207234	136	2215.96342205261	779.94749246543	125	1629.63453455791	1328.02990136531	145.220689866219	1949.69905538621	1188.33238859274	138.45117556542	2371.06569043682	1830.18157508816	160.016400054859	2669.33753984572	1384.74285086534	137	2594.97977849964	1388.76007252369	138.219629842208	1974.11316240125	887.91372952504	126.04072345119	2221.12547467882	1493.31473648627	127	2756.93049034676	308.847592472434	126	865.069225880281	2467.14361036401	134.140854403134	4106.73949656197
358.672860038751	139.474310866219	786.123701558516	1669.81306294236	174.650148219657	2503.78044904437	1059.04329592098	138	2187.46944746625	1800.62990913443	147.001327222897	2596.99251676954	1626.51703580225	127.084936148072	3559.91634269176	1497.17709765951	136	2213.46542870209	779.858719660203	125	1627.94698764389	1328.08564734482	145.16463362509	1948.30719263373	1189.44206755212	138.483241674679	2370.23854172071	1831.6177060649	160.016400054859	2671.39179729114	1385.32247400377	137	2595.85595453489	1388.83614875561	138.244106899082	1974.54005255218	888.400874706931	126.061156926116	2221.22945552166	1494.70151989567	127	2758.39139026013	308.824254393847	126	863.87342413916	2466.51183943639	134.16821661242	4107.1393950629
358.440770141164	139.452688929457	784.742853746656	1667.61808917708	174.551064943443	2498.61603129596	1058.13912523289	138	2184.7057963277	1800.00571887737	147	2594.50318692743	1626.12852014241	127.123127125378	3558.52365876099	1496.18059499068	136	2211.48707566515	779.927410756995	125	1626.93684270878	1328.28992238572	145.126442647784	1947.70564024335	1190.7707923093	138.509651919331	2370.56196370905	1833.56064201231	160.025106444853	2675.61132654562	1386.19408142693	137	2598.14848576225	1389.11476070286	138.25613631843	1976.0673007515	889.123475940131	126.082403674188	2222.69462710847	1496.82477191744	127	2762.42682728115	308.807411147161	126	862.839830744426	2465.84301250668	134.197628275886	4107.81042602257
358.214569805346	139.425155834601	783.345404399053	1665.47565715953	174.453585308807	2493.32077884759	1057.33665762024	138	2182.25151534543	1799.94778804302	147	2593.0630558227	1626.12680770234	127.162239137273	3558.69262151569	1495.40373453667	136	2210.19454038104	780.158263723788	125	1626.57609926731	1328.74378259714	145.109596759847	1947.94624425888	1192.30085371744	138.526238045757	2371.94788636693	1836.04004284746	160.04072345119	2681.87320647342	1387.38257881505	137	2601.77504483714	1389.66777691663	138.255703041147	1978.64269003801	890.072616070282	126.101082211157	2225.41505536085	1499.66100739473	127	2768.82474017726	308.782706979972	126	861.90779869702	2465.15327510227	134.220869151727	4108.75209492624
357.9939480558	139.389777065383	781.996788890117	1663.39388205882	174.358278553597	2488.07486702912	1056.6851349085	138	2180.34201390454	1800.51773296803	147	2592.93443159261	1626.56526980446	127.196301052989	3560.39309750164	1494.99058453155	136	2209.71456454222	780.541806263337	125	1626.78580511636	1329.52088845718	145.114692845176	1948.99634052134	1194.00321623493	138.530442351395	2374.17091928642	1839.02947568241	160.061156926116	2689.77589352114	1388.89431815996	137	2606.50427817964	1390.565103034	138.244642811461	1982.13276310364	891.228599013975	126.115224601697	2229.11532974183	1503.12970144175	127	2777.05405502544	308.742179831802	126	861.020117165014	2464.48692963716	134.233772232749	4109.90408141003
357.781768138613	139.347054679251	780.771026397029	1661.34226436329	174.266781201282	2482.94439812247	1056.22331162251	138	2179.14870323091	1801.67828088711	147	2594.14178194519	1627.42546546355	127.21954192883	3563.39894131839	1495.02600007732	136	2210.07030748237	781.04881167133	125	1627.42135625717	1330.63740741953	145.136204150883	1950.70853095307	1195.8198942528	138.523717989727	2376.88966611038	1842.40069253059	160.082403674188	2698.61944100731	1390.68328433524	137	2611.93936272533	1391.82262583365	138.225964274493	1986.28066870144	892.547365009544	126.123109969924	2233.36886012034	1507.06445609961	127	2786.28920749566	308.683829434088	126	860.130407195231	2463.88023514093	134.235941983689	4111.16553122241
357.581630106519	139.298426132702	779.736366770112	1659.26766326592	174.179966415029	2477.88475299716	1055.96732526866	138	2178.72784172289	1803.28879427776	147	2596.45953083665	1628.60317234676	127.227794757601	3567.2843086923	1495.51149372598	136	2211.16657938753	781.628362104384	125	1628.29004710749	1332.0416006612	145.166889389524	1952.83564859513	1197.6735180157	138.507528578743	2379.6930160124	1845.92884212069	160.101082211157	2707.46225566128	1392.64771003938	137	2617.54027548519	1393.3832475201	138.202962588463	1990.69558059055	893.953901903839	126.125647181409	2237.6408030221	1511.21234473567	127	2795.49593809931	308.609325780272	126	859.210409585394	2463.34488874327	134.231830077553	4112.42301532256
357.399872966687	139.248979454474	778.940670282104	1657.11987566128	174.101458174841	2472.77890457824	1055.90620524233	138.001327222897	2178.99375841363	1805.13613898927	147	2599.45398476576	1629.92876672581	127.21954192883	3571.42151468287	1496.37454095931	136	2212.77543022037	782.219278993971	125	1629.15867434599	1333.62752286743	145.197628275886	1955.04783038555	1199.47622842024	138.485166723213	2382.15209945724	1849.31653909107	160.1138973788	2715.23281726426	1394.64005627913	137	2622.67947783158	1395.11215640571	138.178400051947	1994.86743716837	895.342161784615	126.124861433113	2241.36151199837	1515.24359666646	127	2803.57259278572	308.522032733595	126	858.24665554679	2462.84645021051	134.226741810419	4113.57187639858
357.243517828962	139.203745636985	778.397479516802	1654.87729778076	174.035734172251	2467.50142364603	1055.99966682154	138.004650252251	2179.72525288623	1806.97682837363	147	2602.57706389424	1631.1920059161	127.196301052989	3575.05713206142	1497.4831998298	136	2214.56932302843	782.75593484821	125	1629.78087070372	1335.25778800412	145.21954192883	1956.98386317931	1201.14202672936	138.459881955414	2383.86948743971	1852.2401415467	160.118459717673	2720.88852808021	1396.48878174427	137	2626.71154902927	1396.81248051465	138.153988742237	1998.22234432749	896.587625624015	126.123127125378	2244.01295499951	1518.79991064069	127	2809.5163975807	308.424276610705	126	857.237582907652	2462.31734940321	134.225007502684	4114.54397018616
357.117870647553	139.170405952551	778.084277805811	1652.5599091186	173.987796857365	2461.97998393595	1056.18349349602	138.010422579711	2180.60190255948	1808.58136569351	147	2605.28025959396	1632.18696649664	127.162239137273	3577.4523392053	1498.67779210336	136	2216.18778200757	783.182566961277	125	1629.94328184577	1336.7989492969	145.227794757601	1958.3301772567	1202.60551332341	138.432701401144	2384.53447501054	1854.42059710986	160.1138973788	2723.60790802404	1398.03408965257	137	2629.07275512198	1398.26466493845	138.130297433659	2000.21062193273	897.563935166176	126.122313852232	2245.20988625047	1521.5477066116	127	2812.58922513569	308.315532744366	126	856.186736256891	2461.67290307797	134.228496748377	4115.3091106089
357.026254382242	139.155416296366	777.942089484649	1650.23463797557	173.964203510511	2456.23535118896	1056.37955172652	138.019128969705	2181.26402390198	1809.77684803891	147	2607.11959427406	1632.75590930313	127.123127125378	3578.01746426931	1499.80689253523	136	2217.30440816954	783.463876903078	125	1629.49911809778	1338.15289053537	145.21954192883	1958.88023210919	1203.83639279397	138.404609028846	2383.97448245135	1855.68676483095	160.101082211157	2722.9640055748	1399.16195402617	137	2629.38258646217	1399.27266121357	138.107059686304	2000.4154081615	898.171896807376	126.123127125378	2244.77074482644	1523.24608864033	126.998672777103	2812.45065833868	308.194979392313	126	855.10660234831	2460.85579492645	134.235959139143	4115.8792412867
356.968332572101	139.161658329149	777.889774342989	1648.00659365289	173.969659794998	2450.40201790905	1056.51203573095	138.028973648582	2181.39104380726	1810.47203025335	147	2607.84200687393	1632.81988960898	127.084936148072	3576.43543705299	1500.75248321933	136	2217.68454621515	783.591533016025	125	1628.39617516035	1339.27274224563	145.196301052989	1958.57613284391	1204.84458877024	138.378045123652	2382.17020828155	1856.01189608993	160.082403674188	2719.01281639293	1399.82366582796	137	2627.49834059023	1399.7006958673	138.083730897085	1998.62974337984	898.35600265339	126.124861433113	2242.74511887303	1523.78793985711	126.995349747749	2809.21247323427	308.059822847587	126	854.016508760233	2459.85586189875	134.243409064164	4116.2936605718
356.941751511452	139.189717352267	777.845655542928	1646.00871717219	174.005798189639	2444.72032445146	1056.52693390057	138.03737770416	2180.77948431524	1810.67267787497	147	2607.43084784329	1632.39462244451	127.052473253798	3572.74559563545	1501.44808223579	136	2217.22991156297	783.583922881615	125	1626.69563281229	1340.16578054008	145.162239137273	1957.51927996882	1205.66793242983	138.354068755311	2379.2683067036	1855.50790461585	160.061156926116	2712.30339641309	1400.03617950273	137	2623.55223173046	1399.4959484471	138.061156926116	1994.91656442517	898.115613951259	126.125647181409	2239.40047182075	1523.2173697116	126.988250197392	2803.40347725904	307.909157134704	126	852.946240191331	2458.72505749872	134.245434121979	4116.60179393511
356.941301078715	139.236742187665	777.749294597353	1644.3740355145	174.072496944113	2439.50785880707	1056.40532005629	138.041680222999	2179.39918610208	1810.46812189954	147	2606.09982471544	1631.59502856357	127.028429474207	3567.34810641211	1501.89275956113	136	2215.98887382942	783.487798589273	125	1624.56031509547	1340.88740000974	145.123127125378	1955.93508822019	1206.35917243403	138.336364900653	2375.54238445698	1854.39813282899	160.04072345119	2703.75258432575	1399.87597452367	137.001327222897	2617.91855663396	1398.69852104707	138.04072345119	1989.59282961907	897.505689219608	126.124437192821	2235.16382670842	1521.71726166453	126.976220778044	2795.85139187181	307.744042967078	126	851.934284451777	2457.57231876117	134.238334571621	4116.86004088371
356.962547826787	139.297209540859	777.574410285547	1643.21307733687	174.16463362509	2435.09571811645	1056.17031877964	138.03992528504	2177.400841235	1810.00905049782	147	2604.23137892737	1630.61039088586	127.013077025505	3560.92039391088	1502.14276834445	136	2214.1298254846	783.369579557314	125	1622.22602369422	1341.51982374838	145.084936148072	1954.10969699849	1206.96408140565	138.327306039646	2371.34343973289	1852.95339209046	160.023779221956	2694.4542818883	1399.4516908237	137.004650252251	2611.14695035572	1397.42578282703	138.023779221956	1983.17861288378	896.622905715774	126.119874853948	2230.52845655836	1519.56117943875	126.95927654881	2787.50027587246	307.567930686609	126	851.020747457004	2456.52974197812	134.220957065105	4117.10763361529
357.002110271419	139.363994170883	777.334230618148	1642.58777197589	174.275962792787	2431.76482006731	1055.87993670105	138.031493704612	2175.08207843	1809.46556927227	147	2602.28131521739	1629.66502753999	127.004650252251	3554.2919774595	1502.29131605506	135.998672777103	2211.90553574272	783.301332657047	125	1619.96046284541	1342.14512704271	145.052473253798	1952.32391935	1207.507036299	138.329226602055	2367.0340315758	1851.42893971537	160.010422579711	2685.45121449588	1398.88260654921	137.011749802608	2603.86904289845	1395.84905586886	138.011749802608	1976.30027568453	895.585783676739	126.114159236662	2225.9616073042	1517.06078975623	126.938843073884	2779.2364846631	307.388573862854	126	850.239186118628	2455.71854206287	134.19656291085	4117.36748531646
357.058450728946	139.428390950576	777.074612665606	1642.49938728316	174.396990721564	2429.68628896152	1055.6143473282	138.017377506516	2172.81575752234	1808.98830815343	147	2600.66807284756	1628.96492406076	127.001327222897	3548.26686091431	1502.4369002726	135.995349747749	2209.59152120854	783.346097310555	125	1618.01027109153	1342.82124787651	145.028429474207	1950.78659698418	1207.98808048368	138.342749460638	2362.93641117278	1850.02076340198	159.998672777103	2677.55143744803	1398.27848249363	137.023779221956	2596.71100863281	1394.1648391066	138.004650252251	1969.59380075694	894.514313779397	126.110833148395	2221.83584820144	1514.51274421329	126.916269102915	2771.7612813471	307.214040748598	126	849.610601397244	2455.21687520215	134.171990074511	4117.64795597224
357.13163707441	139.483401623375	776.849187496787	1642.89167571928	174.518506407647	2428.8780555616	1055.4499316926	138	2170.93490035692	1808.686097228	147	2599.6756988078	1628.65099034235	127	3543.4736671833	1502.64806908041	135.988250197392	2207.43235616926	783.541258426625	125	1616.55869440355	1343.55967156488	145.013077025505	1949.60481798692	1208.38246846203	138.366824239848	2359.3017654718	1848.83664851396	159.984927168038	2671.23807573454	1397.72406255454	137.04072345119	2590.22693207821	1392.55754990906	138.001327222897	1963.62312241805	893.506998555339	126.113630179914	2218.38506137873	1512.15163767404	126.894267536593	2765.51905825132	307.05325630232	126	849.140509687352	2455.03381901151	134.154353631104	4117.93455530644
357.221140298956	139.52159260068	776.703496116786	1643.66617955969	174.631970509165	2429.21666289297	1055.44337648819	137.982622493484	2169.66542535203	1808.6108851339	147	2599.42301462164	1628.77368217054	127	3540.25212634745	1502.94467122447	135.974893555147	2205.59879035745	783.892076256268	125	1615.69452324874	1344.31975026567	145.004650252251	1948.77319677109	1208.65322192959	138.399067200489	2356.30025518043	1847.9003793323	159.963143752539	2666.66231090296	1397.27441223232	137.061156926116	2584.855250119	1391.17890523328	138	1958.82375044818	892.635848397459	126.125659599262	2215.71028034652	1510.13923737921	126.874352818591	2760.71131547157	306.915673177163	126	848.823959983528	2455.12289327904	134.149438821218	4118.19846627615
357.325545539466	139.539484056948	776.656187450267	1644.69789276253	174.73229316447	2430.4397310724	1055.61332019357	137.968506295388	2169.06083960843	1808.75656103977	147	2599.84075093893	1629.27413482859	127	3538.61547049923	1503.28165251256	135.954626296559	2204.16665945036	784.361110992971	125	1615.4019796191	1345.00483015776	145.001327222897	1948.19171143256	1208.75897677594	138.436119888913	2354.02798282939	1847.16804207766	159.930847074603	2663.72273785207	1396.94975746603	137.082403674188	2580.891583982	1390.12446902464	138	1955.47331883894	891.937303816555	126.146906347334	2213.81066402124	1508.55635271511	126.857761060371	2757.35961036799	306.807491415649	126	848.654049635667	2455.39226818828	134.158656149942	4118.39084729041
357.440770141164	139.535188779019	776.692432117353	1645.86620630181	174.816687837942	2432.20705528398	1055.94060984707	137.96007471496	2169.00587566604	1809.08085956894	147	2600.72797511995	1630.01118488711	127	3538.28213031636	1503.56489281498	135.927093271276	2203.11586293486	784.87863699283	125	1615.57270806635	1345.48358250652	145.001327222897	1947.70336495702	1208.66681557409	138.472631172309	2352.51549276301	1846.56225813512	159.886369820086	2662.17013845631	1396.74097977773	137.101082211157	2578.47313452499	1389.4285870088	138	1953.67909981588	891.420464629954	126.173988939881	2212.63583744252	1507.42151235662	126.84537917001	2755.38998602421	306.733421039115	126	848.630646377395	2455.74090839992	134.178639192132	4118.45800413404
357.559229858837	139.512101217438	776.772645691851	1647.07041413361	174.887839628708	2434.15661359195	1056.37391986266	137.958319777002	2169.26534340703	1809.52101013947	147	2601.82459890536	1630.79675511539	127	3538.79867367516	1503.67539944986	135.893817103856	2202.36667459581	785.355066178366	125	1616.04626804748	1345.61584908417	145.004650252251	1947.1552048677	1208.35790765173	138.503664074788	2351.75839484759	1846.00370694827	159.832660177739	2661.73845878401	1396.61466668244	137.1138973788	2577.59480483812	1389.06683141326	138	1953.40159506681	891.072450340855	126.20095130524	2212.11428552818	1506.70537706396	126.837760862727	2754.69060677435	306.696317389473	126	848.760846891264	2456.07900875807	134.202278528136	4118.32582764059
357.674454460534	139.475239141717	776.847150572535	1648.24740926493	174.949545270335	2435.96527712138	1056.84697128703	137.96262229584	2169.55544062534	1810.01661504869	147	2602.88137794175	1631.44226018937	127.001327222897	3539.67456438237	1503.50467291808	135.858194337653	2201.81824770889	785.698624860075	125	1616.65585683403	1345.28611372392	145.013077025505	1946.44452595835	1207.83035479739	138.523700834272	2351.72386146777	1845.43308834218	159.775790663465	2662.21777680183	1396.51856430569	137.118459717673	2578.1135566671	1388.96890490489	138	1954.47278037454	890.868345206627	126.220869151727	2212.19571414018	1506.35278635054	126.835192651623	2755.18115977506	306.695796198813	126	849.063299570327	2456.34760834254	134.220869151727	4117.93620789855
357.778859701044	139.431975837791	776.876083127457	1649.37761008831	175.007099550358	2437.41110401111	1057.29658397221	137.971026351418	2169.63247872991	1810.52554110771	147	2603.73790693595	1631.81161707699	127.004650252251	3540.53567989006	1502.99182020556	135.824945695083	2201.3964172359	785.841109611514	125	1617.27951864455	1344.43980703168	145.028429474207	1945.56361769767	1207.09645561791	138.529330576008	2352.36600945336	1844.81895494323	159.723863483927	2663.49300405523	1396.38949322409	137.113897378801	2579.78471812518	1389.03568254365	138	1956.63668390319	890.774351290542	126.227794757601	2212.84254916264	1506.29355879248	126.837760862727	2756.79936141583	306.727717618486	126	849.553463712624	2456.51813625646	134.227794757601	4117.23321984347
357.869690148487	139.389095053515	776.850726191833	1650.4962170739	175.065807178367	2438.42660690705	1057.68522884575	137.980871030295	2169.37435156895	1811.04368471228	147	2604.38140076196	1631.85310886659	127.011749802608	3541.22407491069	1502.14634624932	135.799136608139	2201.08509413283	785.753840319616	125	1617.87406750208	1343.10274834018	145.053800476695	1944.60717721224	1206.18488085917	138.519265963498	2353.62781383914	1844.16165837219	159.685239229338	2665.52201741491	1396.16849047186	137.101082211157	2582.29662955543	1389.16603521772	138	1959.58658851952	890.757837861421	126.21954192883	2214.02676924488	1506.46095215776	126.84537917001	2759.49436300838	306.785020410043	126	850.23787110607	2456.6025591415	134.220869151727	4116.18923211436
357.946199523305	139.352523381591	776.795042381881	1651.671722266	175.129104600526	2439.09290352959	1058.00503508943	137.989577420289	2168.8075799032	1811.59802124987	147	2604.93860832583	1631.60972612033	127.023779221956	3541.79747971547	1501.05328462704	135.785020410043	2200.91655716639	785.457530691797	125	1618.47042256169	1341.38604783309	145.09091362322	1943.73803132321	1205.13181670799	138.49807293272	2355.43715465088	1843.47232606497	159.66656069237	2668.27977001965	1395.80866211198	137.082403674188	2585.31317382986	1389.27423952927	138	1963.00195675604	890.790136374431	126.196301052989	2215.7060947137	1506.79327162117	126.857761060371	2763.18298778096	306.856439399695	126	851.102350275901	2456.6343882869	134.20095130524	4114.8124576563
358.012293976983	139.325545539466	776.767249228804	1652.99741809579	175.199095384734	2439.62444264075	1058.28495437064	137.995349747749	2168.10850681143	1812.24542374015	147	2605.6555828736	1631.20924808804	127.04072345119	3542.49450631151	1499.86054140737	135.785020410043	2200.96233453452	785.020533499371	125	1619.16160239397	1339.47186455835	145.139527180237	1943.14429251194	1203.98385472617	138.470177067028	2357.70065535458	1842.76578739409	159.671123031242	2671.68626834003	1395.28719887269	137.061156926116	2588.50665356296	1389.30820707693	138	1966.57842937181	890.849435106457	126.162239137273	2217.79806963793	1507.2417832263	126.874352818591	2767.70351235499	306.929613327306	126	852.104173799645	2456.66346750805	134.175316162778	4113.14589216585
358.073186345464	139.310714281425	776.845511921853	1654.55719190765	175.277203780994	2440.3088565783	1058.57671450738	137.998672777103	2167.55651847743	1813.04787797395	147	2606.82477350118	1630.82555456759	127.061156926116	3543.61610175063	1498.74388904618	135.799136608139	2201.28627224927	784.543255154896	125	1620.05883131052	1337.57718439053	145.199095384734	1942.9744508267	1202.79848807216	138.443567172683	2360.30170231183	1842.050001183	159.698054396982	2675.56104901296	1394.61441750221	137.04072345119	2591.59135235374	1389.25358505524	138	1970.04737568937	890.926183417875	126.123127125378	2220.17473110163	1507.77543077324	126.894267536593	2772.80574530576	306.992800118411	126	853.174871611507	2456.75205289112	134.152883822482	4111.2641789415
358.136204150883	139.307749354879	777.103507630291	1656.40273342919	175.362928805848	2441.43136648976	1058.93726216602	138	2167.45090445481	1814.05141776114	147	2608.69144453895	1630.63644815628	127.082403674188	3545.40853625094	1497.86954340554	135.824945695083	2201.90833107176	784.136328547631	125	1621.24704605613	1335.91636565247	145.265453978385	1943.28676430111	1201.64005015904	138.424628885253	2363.09858835235	1841.32030768825	159.742542020895	2679.60773266997	1393.83055832621	137.023779221956	2594.33678416355	1389.12759576745	138	1973.18951610069	891.025060206072	126.084936148072	2222.67710871878	1508.38301892626	126.916269102915	2778.16723778887	307.037644903046	126	854.234180437111	2456.96605259579	134.142059654121	4109.27502191015
358.207068666339	139.31600218365	777.595480783883	1658.53779171819	175.453585308807	2443.22153580156	1059.41263472777	138	2168.03675334713	1815.26870600105	147	2611.39033517209	1630.7826583504	127.101082211157	3547.98780034822	1497.36094270988	135.858194337653	2202.78852828154	783.898109640748	125	1622.76117497135	1334.66452761799	145.333172108744	1944.03813237124	1200.58077416783	138.417703209806	2365.92746073945	1840.56683241144	159.797037411537	2683.44010513168	1393.00015907923	137.011749802608	2596.56872126733	1388.9684707449	138	1975.83365483005	891.156649713397	126.052473253798	2225.12505851603	1509.06103064236	126.938843073884	2783.42464720457	307.060902934342	126	855.197866799751	2457.3549686294	134.150486427375	4107.28293913392
358.290280806499	139.333955157266	778.340492647518	1660.91499975443	175.546414691193	2445.81971936266	1060.02331566811	138	2169.44857012707	1816.67148192547	147	2614.90102155426	1631.34760937011	127.113897378801	3551.3168505331	1497.28585461836	135.893817103856	2203.83243809937	783.899646462417	125	1624.57811980887	1333.93838170578	145.396461802759	1945.09897106348	1199.69021686315	138.422846422445	2368.62422016792	1839.78106781051	159.853093652666	2686.66281948907	1392.19920712641	137.004650252251	2598.18194073189	1388.82083703187	138	1977.8670173576	891.337977854555	126.028429474207	2227.3561647974	1509.81325792107	126.95927654881	2788.2362714204	307.064676396433	126	855.999094648031	2457.95240778215	134.179986073792	4105.3875785743
358.386708027804	139.359607455182	779.319689175109	1663.43668864623	175.637071194152	2449.26977548398	1060.75394093274	138	2171.68272012997	1818.18803074913	147	2619.05789110926	1632.34983721281	127.118459717673	3555.21993962006	1497.65445626817	135.927093271276	2204.91025227011	784.1770390626	125	1626.62045717999	1333.78883779401	145.449728740512	1946.28601728797	1199.02199183171	138.43904139565	2371.03036725461	1838.95978680819	159.903314049319	2688.93694633833	1391.49539345295	137.001327222897	2599.11955069811	1388.71875414359	138	1979.22130455174	891.579865575061	126.014404248402	2229.25552934193	1510.63658110774	126.976220778044	2792.34474963027	307.055179450969	126	856.598051237745	2458.76029550397	134.229116639473	4103.68062165486
358.494308759997	139.390308170589	780.483186034431	1665.97456790192	175.721468996109	2453.54157731029	1061.55992794613	138	2174.6182129584	1819.72198074989	147	2623.60091418243	1633.75999533228	127.113897378801	3559.48737891419	1498.44113584743	135.954626296559	2205.91709471269	784.733076125988	125	1628.80127475899	1334.21761791184	145.490164846818	1947.43923161053	1198.6021030949	138.459881955414	2373.0084473145	1838.10836764635	159.942876493951	2690.05197384281	1390.93455711361	137	2599.36826327907	1388.67908859838	138	1979.87177856472	891.882055219025	126.009300504501	2230.76764029041	1511.51524608617	126.988250197392	2795.6040481924	307.039396228293	126	856.984044971354	2459.74740982237	134.290537705563	4102.23138061991
358.607571617309	139.42263577857	781.762410569688	1668.38439792624	175.796254363015	2458.54952572979	1062.3731668384	138	2178.05526134163	1821.16685246626	147	2628.2419107192	1635.51766064579	127.101082211157	3563.96206487081	1499.60325362195	135.974893555147	2206.81791430351	785.543475856406	125	1631.05091469511	1335.19486336464	145.518506407647	1948.47644683439	1198.43198116682	138.4814811745	2374.46820102197	1837.26080419659	159.971570525793	2689.98265952161	1390.54514243067	137	2598.97298092993	1388.71316111634	138	1979.84673818147	892.229614140997	126.013077025505	2231.90230736711	1512.42024076132	126.995349747749	2797.99564318488	307.023779221956	126	857.172747851964	2460.85408817507	134.35707330261	4101.09687036732
358.719474868341	139.452688929457	783.078338780928	1670.526037274	175.859145596866	2464.15030418832	1063.11827622188	138	2181.75159157824	1822.42871435653	147	2632.71192491534	1637.54961520861	127.082403674188	3568.60460366118	1501.09706376857	135.988250197392	2207.68030230254	786.567027547407	125	1633.34558215225	1336.67683579528	145.53879638391	1949.43716640347	1198.48815857602	138.499918912542	2375.37983314795	1836.47926742783	159.992900449642	2688.89647509153	1390.33818114264	137	2598.03670525254	1388.82974643284	138	1979.23533923878	892.593974491843	126.023779221956	2232.71731016072	1513.31300110881	126.998672777103	2799.61109934333	307.010422579711	126	857.194945333734	2462.00095535416	134.419790591978	4100.30655485293
358.822551207266	139.475503699352	784.354705558892	1672.2842777983	175.90908637678	2470.14643553578	1063.72847088136	138	2185.46511103519	1823.44601498104	147	2636.81090124596	1639.78866862714	127.061156926116	3573.55500121579	1502.88944427707	135.995349747749	2208.69490725054	787.754001548241	125	1635.73065223792	1338.62216217745	145.557199993848	1950.50412987427	1198.73782000066	138.51220976104	2375.78488903586	1835.86417943048	160.013077025505	2687.13477863556	1390.32157178509	137	2596.73385395777	1389.05514359261	138	1978.20001570195	892.940286216487	126.04072345119	2233.31159053112	1514.15854074676	127	2800.63527480384	306.998672777103	126	857.091095305255	2463.10658931853	134.474293710764	4099.8806472451
358.910151741816	139.488057437847	785.529310083679	1673.58097193819	175.946199523305	2476.29947407722	1064.1588099338	138	2188.99953654328	1824.19953494924	147	2640.43841770213	1642.17589679267	127.04072345119	3579.07925026772	1504.9522405784	135.998672777103	2210.13592552173	789.054396043747	125	1638.30277998067	1340.99019611153	145.580209408022	1951.9643687245	1199.15733319715	138.52051769087	2375.79791715281	1835.55531618377	160.040179276815	2685.15416548135	1390.51662290184	137	2595.30858596105	1389.44636505669	138	1976.97652668299	893.2396902572	126.062484149013	2233.80121563268	1514.9388178853	127	2801.31063062885	306.984927168038	126	856.903344345852	2464.10931787613	134.518506407647	4099.81948804341
358.977605314539	139.487108878408	786.554616847853	1674.39033181727	175.971570525793	2482.32003085133	1064.397817518	138	2192.20553481372	1824.72295665101	147	2643.57758582519	1644.65396096646	127.023779221956	3585.47435991032	1507.24631747289	136	2212.29050757638	790.41654809715	125	1641.1725303669	1343.72813837721	145.612760215675	1954.13338088974	1199.7356071691	138.52625770452	2375.59304166367	1835.70878125467	160.082229950902	2683.44088365663	1390.95942406885	137	2594.05192907618	1390.08271694236	138	1975.8538015665	893.471059398608	126.087053926439	2234.30227780153	1515.65429601552	127	2801.89830584008	306.964470975436	126	856.671301561703	2464.96376395398	134.553340297067	4100.10210871915
359.022983755581	139.472153214722	787.407712666441	1674.73832966794	175.988250197392	2487.91593726025	1064.46697062386	138	2195.01411862274	1825.0944789426	147	2646.30598617643	1647.16340145619	127.011749802608	3592.97234566455	1509.71180522371	136	2215.39157391398	791.793250145982	125	1644.43397830292	1346.76286688208	145.656809755131	1957.28308394675	1200.47915238279	138.532267493478	2375.37442318686	1836.47054225491	160.143386877018	2682.41370843415	1391.69424125186	137	2593.25740568453	1391.05570129014	138.001327222897	1975.12873872374	893.632981732124	126.112832013765	2234.9150935444	1516.32769913759	127	2802.64106889458	306.935497326854	126	856.430503270453	2465.65890345659	134.582487890132	4100.69402787449
359.047281734462	139.446944057274	788.088264260437	1674.68462046709	176.001327222897	2492.82033467321	1064.41012407904	138	2197.42167934471	1825.40869711589	147	2648.75750854803	1649.63424967051	127.004650252251	3601.62137274445	1512.25889987799	136	2219.53710127198	793.138775721077	125	1648.11876076663	1349.99175085353	145.710786458422	1961.55548662639	1201.40013388493	138.539312012349	2375.35390612725	1837.93636690912	160.224463328309	2682.35503902482	1392.75785583386	137	2593.17914902126	1392.43773336494	138.004650252251	1975.05788685213	893.73636230535	126.137676600757	2235.71055685497	1516.99110982326	127	2803.72522875886	306.898119622694	126	856.212910253503	2466.20379499861	134.60917532846	4101.55070544083
359.053974199982	139.414877948015	788.615752136341	1674.32205168623	176.016400054859	2496.83340735631	1064.28613505286	138	2199.47803532555	1825.76501735441	147	2651.08555433392	1651.98208265556	127.001327222897	3611.23605363599	1514.77046609086	136	2224.6563902688	794.409906972488	125	1652.17602278566	1353.28495933356	145.771140411214	1966.91992814654	1202.50593926121	138.546414691193	2375.70164758065	1840.12073755415	160.322222510112	2683.34288158889	1394.15798084731	137	2593.96803184249	1394.25601336306	138.011749802608	1975.79299505173	893.802329024892	126.159183168863	2236.72417124662	1517.67723526238	127	2805.2571968136	306.856439399695	126	856.04559596174	2466.6230951219	134.636265649151	4102.62907117277
359.048079900611	139.384165184524	789.027318057519	1673.76219769356	176.041506499712	2499.86605828798	1064.15305252669	138	2201.27040765132	1826.24586859564	147	2653.44029585689	1654.1119256442	127	3621.40336633332	1517.11512815329	136	2230.51759070031	795.565827145317	125	1656.46310953969	1356.49553392742	145.830005731945	1973.16656022139	1203.77579465228	138.55134449061	2376.51402383167	1842.93759477129	160.427693115658	2685.25866336823	1395.85631360948	137	2595.65128336518	1396.45679930296	138.025106444853	1977.34273687502	893.852442624008	126.176381527814	2237.94248252617	1518.39773746975	127	2807.22510940031	306.816514114655	126	855.948836181396	2466.94126745638	134.665500668359	4103.88076095773
359.036073198939	139.360929940478	789.362638026895	1673.11591184469	176.082229950902	2501.93112528813	1064.05634374392	138	2202.87922953772	1826.91146613895	147.001327222897	2655.93705504815	1655.91997678105	127	3631.52501156198	1519.16549553045	136.001327222897	2236.76207028731	796.561883714106	125	1660.74691761081	1359.47128378923	145.880392344938	1979.92324511123	1205.1478171344	138.550803085582	2377.76906860767	1846.20597074353	160.529473161733	2687.82181722742	1397.76117782714	137	2598.11425645507	1398.88613968946	138.045373703441	1979.54273400584	893.898577358403	126.188136137596	2239.29869312669	1519.12690220627	127	2809.48950142904	306.785020410043	126	855.937967838179	2467.1730378509	134.695841094557	4105.26898978901
359.021124776162	139.349682794657	789.657068043317	1672.48106360486	176.143386877018	2503.13514131605	1064.02383386548	138	2204.36685871175	1827.80572243028	147.005977475148	2658.68461189998	1657.28861388319	127	3640.87300017478	1520.81027328582	136.005977475148	2242.95661410579	797.341782023772	125	1664.70710787063	1362.06277381788	145.913119796848	1986.70037208589	1206.5034606829	138.543877410135	2379.29053524076	1849.67429277065	160.614676508691	2690.6656284933	1399.72576050392	137	2601.10159100335	1401.28259673923	138.074233951621	1982.0508329325	893.929488042029	126.195235687953	2240.65468279395	1519.77728650064	127	2811.75571285519	306.766315680629	126	856.014853946892	2467.30039886776	134.724273268538	4106.7529439235
359.005772327461	139.351844817453	789.934039747273	1671.92663481398	176.225790551206	2503.63459534651	1064.06743554154	138	2205.76671548173	1828.97468016642	147.017727277756	2661.81413778073	1658.08550901184	127	3648.66044378798	1521.97576693094	136.017727277756	2248.66716676947	797.828694184157	125	1667.95000352558	1364.13951006314	145.921637252827	1992.95827383818	1207.66451112612	138.529296517476	2380.73990193041	1853.07931345481	160.670218800069	2693.43632982349	1401.56438754803	137	2604.25154320748	1403.29250168435	138.110833148395	1984.37977512195	893.905624642718	126.198833526873	2241.80335538067	1520.18890210849	127	2813.57823162816	306.761665428379	126	856.169248943961	2467.27109681255	134.746313583101	4108.29988795378
358.986922974495	139.366824239848	790.192786212056	1671.46737515874	176.326872762363	2503.56453587844	1064.18035560663	138	2207.06971222632	1830.46622037757	147.040179276815	2665.47998839602	1658.16160797649	127	3654.12954831942	1522.62396743137	136.040179276815	2253.51240080577	797.921501576523	125	1670.04883493037	1365.60051373735	145.900042771343	1998.18775835108	1208.42231299147	138.509301544668	2381.65655856427	1856.20173713647	160.686002022744	2695.86909573659	1403.08570382461	137	2607.14377767622	1404.52572388174	138.153555464955	1985.96037948272	893.756676741403	126.199906620053	2242.47074006072	1520.13106402003	127	2814.38742311105	306.767293132287	126	856.377436737472	2466.99536440702	134.755009721165	4109.87780534633
358.959820723185	139.388644620778	790.412386629529	1671.06688905912	176.439442918267	2502.99406342333	1064.348955558	138	2208.23156039889	1832.32831293372	147.076252475754	2669.84007663217	1657.38019910689	127	3656.66887888141	1522.76865052012	136.076252475754	2257.21887899905	797.514556569747	125	1670.61907761393	1366.39838108307	145.844658172687	2002.00577530195	1208.57624457049	138.484720980185	2381.56052730678	1858.92193876436	160.655573683168	2697.85676108161	1404.12429729597	137	2609.37810815673	1404.63573129668	138.198833526873	1986.26157588567	893.391594414675	126.198833526873	2242.34625362483	1519.33424015353	127	2813.56085601492	306.77633483784	126	856.599066624025	2466.35707981258	134.74550985473	4111.43358772938
358.917770049098	139.413667889854	790.557902443568	1670.63884257112	176.553252383689	2501.91191512965	1064.55308341795	138	2209.18959999116	1834.57725596683	147.125659599262	2674.98828544563	1655.65024860051	127	3655.95969260099	1522.4715602479	136.125659599262	2259.66362641125	796.523459735484	125	1669.41902138921	1366.55730537408	145.756482171038	2004.24205109128	1207.9955015397	138.457626457019	2380.08372692094	1861.24563420499	160.57729907057	2699.45765522792	1404.58396272475	137	2610.65632707506	1403.41536264992	138.241586843051	1984.91585173444	892.725015286898	126.195235687953	2241.15170258129	1517.55778397174	127	2810.55543422852	306.780186923941	126	856.787374366876	2465.26007228473	134.714286269975	4112.89688477633
358.857940345879	139.436557973369	790.591136978965	1670.07647500384	176.655399959881	2500.24350830665	1064.76931967108	138	2209.86912555901	1837.16270741979	147.184284051494	2680.84363467138	1652.98580033641	127	3652.09202984434	1521.8423855016	136.184284051494	2260.87814969615	794.929959347183	125	1666.44132881765	1366.19113037937	145.637598213073	2004.98050883125	1206.67055520916	138.427693115658	2377.11438500059	1863.28334079776	160.456037514203	2700.86089466341	1404.46100175487	137	2610.86453719047	1400.8710953434	138.276136516073	1981.84292746509	891.707217814286	126.188136137596	2238.72496592561	1514.66569076704	127	2805.05834289555	306.772460023432	126	856.900741603034	2463.66286073287	134.660050212132	4114.18083555866
358.778859701044	139.45425695128	790.488986225495	1669.27938784982	176.732702949082	2497.9175480237	1064.96982945779	138	2210.20856417673	1839.93918497033	147.244642811461	2687.09728915802	1649.54032891988	127	3645.63031293696	1521.02224557832	136.244642811461	2261.03327073118	792.811998612627	125	1661.97225163081	1365.49245618871	145.494727185691	2004.55171568998	1204.74278239141	138.395396437723	2372.87218860116	1865.19768414932	160.301945603018	2702.3032718219	1403.84911692153	137	2610.10046888118	1397.25189048656	138.297383264146	1977.29770317984	890.345209465993	126.176381527814	2235.08055843623	1510.68699183903	127	2797.10602171501	306.75121327536	126	856.907749149798	2461.60797409879	134.586073311198	4115.17412975664
358.686204263142	139.46507638204	790.254567047138	1668.19433871928	176.77438317208	2494.93742039239	1065.12640338612	138	2210.18087275097	1842.66769631639	147.297383264146	2693.2085460483	1645.6137194502	127	3637.56831686972	1520.16362790088	136.297383264146	2260.39834598853	790.352801076969	125	1656.57767675646	1364.70352922534	145.338889763857	2003.46532648027	1202.49630166746	138.360396331964	2367.91549589036	1867.13997593357	160.130297433659	2704.00410379402	1402.92619172166	137	2608.67348834201	1393.02406206897	138.301945603018	1971.85846317842	888.721106649981	126.159183168863	2230.454104566	1505.85180459298	127	2787.14732858008	306.719828163974	126	856.801467774415	2459.24506489223	134.496745709823	4115.77575508155
358.587659333043	139.467644593144	789.922880985116	1666.82345831286	176.77438317208	2491.4333376233	1065.20365228826	138	2209.80533111248	1845.03132447308	147.33343930763	2698.4813213931	1641.61171146303	127	3629.16040569443	1519.40142675181	136.33343930763	2259.27931994156	787.819643637184	125	1651.01186427043	1364.06740749127	145.183312162058	2002.29472387196	1200.29887562795	138.323358633072	2363.03364943982	1869.17959452139	159.959102825523	2706.07668978546	1401.90643371463	137	2607.023129306	1388.77613781333	138.288951683717	1966.31071218888	886.981004147448	126.137676600757	2225.28953822412	1500.57067698014	127	2776.01037691893	306.687543903893	126	856.603041822361	2456.81599354544	134.40137391287	4115.92279605595
358.493243394961	139.461875258563	789.55879097449	1665.23556931167	176.732702949082	2487.67911374307	1065.16787483414	138	2209.14989929716	1846.69669925077	147.346254475274	2702.19371617325	1637.98394528946	127	3621.69297827469	1518.83557235096	136.346254475274	2257.95890637948	785.520162978971	125	1646.07572493656	1363.78131242663	145.042304665861	2001.55237859542	1198.53049874349	138.285092208133	2359.08546566404	1871.26982652024	159.806093434828	2708.49717383522	1400.99457622086	137	2605.62232458308	1385.10055619066	138.26026538002	1961.4847951637	885.315648672042	126.112832013765	2220.1692899313	1495.37009714062	127	2764.77070839969	306.66656069237	126	856.362011412843	2454.62245715802	134.307743792658	4115.60671462306
358.411808910435	139.448939863731	789.241511037228	1663.55159193897	176.655399959881	2484.04868104758	1064.9871421562	138	2208.31242905541	1847.37674357059	147.33343930763	2703.74428862452	1635.12947013144	127	3616.22493203296	1518.50931989017	136.33343930763	2256.63836138337	783.737576090166	125	1642.45235136815	1363.94766405269	144.928407287061	2001.57214322063	1197.50482181628	138.249836972049	2356.79918643392	1873.25526648318	159.686820444009	2711.09276920874	1400.34955343157	137	2604.85828241072	1382.47342500565	138.220080274945	1958.07118191331	883.921343337368	126.087053926439	2215.72075667087	1490.79450897243	126.998672777103	2754.57339733291	306.671472802482	126	856.153594357748	2452.96632159039	134.225790551206	4114.8993664423
358.350244899481	139.428932425177	789.044797440912	1661.92329610768	176.553252383689	2480.9339914475	1064.64009017673	138	2207.38773659367	1846.90012177147	147.297383264146	2702.76849496536	1633.31234183416	127	3613.34631284412	1518.39718339458	136.297383264146	2255.38737277786	782.671469364892	125	1640.55303103107	1364.5429163574	144.849872854428	2002.4199631366	1197.39746192856	138.220689866219	2356.6075206254	1874.89886129143	159.611114042515	2713.57831443475	1400.04645701575	137	2604.94343563975	1381.15426838623	138.173988939881	1956.475649029	882.961321767711	126.062484149013	2212.49465200211	1487.30401940508	126.995349747749	2746.42540980742	306.714044667229	126	856.068321048661	2452.09529231133	134.162515846723	4113.93289481496
358.310276266542	139.403909086528	789.01912055733	1660.50845592665	176.439442918267	2478.65607665819	1064.12210456383	138	2206.44420130448	1845.25477993891	147.244642811461	2699.2221107247	1632.61297699883	127	3613.09537097813	1518.41437645462	136.244642811461	2254.14516238285	782.395078224608	125	1640.4496892568	1365.41951246707	144.809149403238	2003.88686531251	1198.21216550788	138.200684106353	2358.54408024362	1875.94300934402	159.582420010673	2715.61446295281	1400.07205567743	137	2605.866155281	1381.14910092842	138.127777377629	1956.74132507738	882.531207885248	126.04072345119	2210.87219557951	1485.18463959656	126.988250197392	2741.03235358111	306.801246741615	126	856.19945442791	2452.14002624006	134.121626179195	4112.8867506402
358.290280806499	139.375748780665	789.18116377686	1659.43750189852	176.326872762363	2477.39873826598	1063.44537365901	138	2205.51379231709	1842.58850588258	147.184284051494	2693.39311326958	1632.91421162803	127	3614.9660571692	1518.43096503834	136.184284051494	2252.73241923171	782.843408035882	125	1641.87128698534	1366.32933754653	144.802747687799	2005.52961756363	1199.7865644099	138.192446267114	2362.24949977502	1876.17490879583	159.597234043686	2716.88522330542	1400.33713541418	137	2607.40569810231	1382.23495821389	138.086263370969	1958.56578502682	882.643677067825	126.023779221956	2211.00067211495	1484.50927019596	126.974893555147	2738.70339690923	306.934273090121	126	856.628886406119	2453.09682365077	134.102663425828	4111.9447288509
358.284827650498	139.347316537112	789.512827144733	1658.80430947761	176.225790551206	2477.17863325224	1062.64360388128	138	2204.59509479092	1839.18985945629	147.125659599262	2685.84769809347	1633.93646018158	127	3618.05862609663	1518.2999365665	136.125659599262	2250.89835023902	783.832453630962	125	1644.28717395672	1366.97735086753	144.822491589803	2006.77463520962	1201.82980886867	138.194278916145	2367.08083424856	1875.47353129898	159.646110061989	2717.17554996887	1400.70492756452	137	2609.21071363231	1384.03059003793	138.052473253798	1961.40693251486	883.227517957052	126.011749802608	2212.78436097913	1485.1379284975	126.954626296559	2739.33983816388	307.106009172858	126	857.409889426659	2454.82110851844	134.100130951944	4111.26015861308
358.287572709444	139.322293268036	789.973031912263	1658.65193348973	176.143386877018	2477.8779030026	1061.76299595447	138	2203.68102619021	1835.42010958883	147.076252475754	2677.3304719241	1635.31699368209	127	3621.35290425052	1517.89580952167	136.076252475754	2248.41129656318	785.110272104063	125	1647.06849460907	1367.0897797884	144.857766622592	2007.07402827704	1203.99263880108	138.203483779124	2372.27586224422	1873.8335655009	159.715960960246	2716.41329369249	1401.02497060793	137	2610.89040561003	1386.10356570874	138.028429474207	1964.62827460677	884.149534197094	126.004650252251	2215.92235056769	1486.77268227525	126.927093271276	2742.50728402932	307.303093540407	126	858.555386885976	2457.07047174829	134.107059686304	4110.9294361142
358.291326582344	139.304687824248	790.511806737525	1658.97357560936	176.082229950902	2479.3094416002	1060.85697592918	138	2202.78171160657	1831.63926375841	147.040179276815	2668.63288686445	1636.70501785939	127	3623.95875243939	1517.15291622242	136.040179276815	2245.12304046825	786.421988814869	125	1649.6422405217	1366.48593229289	144.898119622694	2006.03661402435	1205.94424712291	138.213940417367	2377.15132860577	1871.36886576784	159.791936726549	2714.69373841273	1401.17670390055	137	2612.13155935637	1388.07958318809	138.013077025505	1967.66478553174	885.249492175142	126.001327222897	2219.98630104097	1489.04184163163	126.893817103856	2747.56250151371	307.508078265714	126	860.034244129752	2459.56761211285	134.115224601697	4110.97928123692
