Light	Light	Light	Light	Light	Light	Light	Light	Light	Light	Light	Light	Light	Light	Light	Light	Light	Light	Light	Light	Light	Light	Light	Light	Light	Light	Light	Light	Light	Light	Light	Light	Light	Light	Light	Light	Light	Light	Light	Light	Light	Light	Light	Light	Light	Light	Light	Light
Optode1-730nm	Optode1-Ambient	Optode1-850nm	Optode2-730nm	Optode2-Ambient	Optode2-850nm	Optode3-730nm	Optode3-Ambient	Optode3-850nm	Optode4-730nm	Optode4-Ambient	Optode4-850nm	Optode5-730nm	Optode5-Ambient	Optode5-850nm	Optode6-730nm	Optode6-Ambient	Optode6-850nm	Optode7-730nm	Optode7-Ambient	Optode7-850nm	Optode8-730nm	Optode8-Ambient	Optode8-850nm	Optode9-730nm	Optode9-Ambient	Optode9-850nm	Optode10-730nm	Optode10-Ambient	Optode10-850nm	Optode11-730nm	Optode11-Ambient	Optode11-850nm	Optode12-730nm	Optode12-Ambient	Optode12-850nm	Optode13-730nm	Optode13-Ambient	Optode13-850nm	Optode14-730nm	Optode14-Ambient	Optode14-850nm	Optode15-730nm	Optode15-Ambient	Optode15-850nm	Optode16-730nm	Optode16-Ambient	Optode16-850nm
357.937515850987	139.479938570127	774.547828626719	1691.53441360353	175.717609299329	2578.52589447763	1061.71687881224	138.113897378801	2169.67828969963	1827.96066988788	147.123127125378	2646.25473925248	1687.38312057076	127.061156926116	3672.30088737394	1521.07873344962	136.118459717673	2241.41605795085	813.305995022633	125	1686.36318371773	1399.43087489115	146.745248218066	2047.26950182443	1203.20382180241	138.356375467692	2351.28536435439	1894.62584313922	161.101082211157	2768.89893619041	1407.71739410064	137.023779221956	2583.95589958969	1308.02321260755	139.183485885345	1871.65117198717	912.54654348991	126.023779221956	2226.11557734048	1479.42147089202	128	2762.48771726288	304.396835332707	126	827.916820952297	2568.59459042232	134.366256572802	4105.52212341905
357.431037134375	139.46813235045	772.456759162842	1691.60835565007	175.807204099589	2582.89485523489	1061.16709730928	138.101082211157	2166.24879658323	1829.3051448826	147.124861433113	2645.57079617522	1685.39726903485	127.082403674188	3664.35262335696	1519.72302644578	136.113897378801	2237.44733544577	812.185153086423	125	1682.27415422715	1398.14008408944	146.717719930383	2044.20655918769	1203.07475848491	138.405241116599	2351.37263886299	1895.90648346693	161.112570155904	2772.16012471968	1407.72963716686	137.04072345119	2585.5386597463	1308.5233275828	139.183485885345	1872.98442143788	912.226670489819	126.04072345119	2224.53314050823	1478.7713114228	128	2759.82743937698	304.391474689743	126	828.175786329237	2567.41713395483	134.315556237037	4104.52419132905
356.934125208212	139.449987469888	770.338771578035	1690.17667971571	175.851429865641	2583.41673081913	1060.56673412155	138.082403674188	2162.6691929779	1830.07813158505	147.125647181409	2643.87032700779	1683.03607356444	127.101082211157	3655.21875397598	1518.32832227641	136.101082211157	2233.26310205234	810.930191035769	125	1677.71885570715	1396.66856779142	146.68074554492	2040.58456775575	1203.15884724186	138.450151648399	2351.76923079185	1896.77905968296	161.113809465422	2774.54619156499	1407.59933174163	137.061156926116	2586.76761003234	1308.81630972338	139.175054304917	1873.93850911334	912.008504456403	126.062484149013	2223.28077818172	1478.09134694851	128	2757.12725082087	304.39854574379	126	828.483852514522	2566.85399655265	134.270905455698	4103.61519658378
356.45983705967	139.431711280156	768.24554978769	1686.84960049733	175.833422971146	2579.03975388359	1059.91412351466	138.061156926116	2158.95953292128	1830.00113019704	147.123109969924	2640.76292882672	1680.32787133523	127.113897378801	3644.76708672701	1516.93575240494	136.082403674188	2228.75258148694	809.562377244219	125	1672.68002726959	1394.95455282655	146.630669478713	2036.13654222445	1203.41849170341	138.484995907215	2352.23461371802	1897.00493519946	161.100820353295	2775.2739385114	1407.28986728769	137.082403674188	2587.24679623551	1308.85980013224	139.159183168863	1874.21427177502	911.887479627239	126.087053926439	2222.24238831913	1477.31577268756	128	2754.1008873171	304.426368547694	126	828.862519268214	2567.05082849737	134.23604231492	4102.7798798736
356.019331210103	139.419004636166	766.233744754403	1681.51842354536	175.748753370644	2569.38839472884	1059.22328445734	138.04072345119	2155.19159285758	1828.90781196524	147.115224601697	2636.07580213728	1677.33138889232	127.118459717673	3633.06035116298	1515.58977977443	136.061156926116	2223.87920727294	808.117381394343	125	1667.22748194921	1392.96210969322	146.566158593197	2030.70376700888	1203.79635363805	138.507538878565	2352.50594274979	1896.38406584989	161.07265273695	2773.61990027169	1406.76704464787	137.102409434054	2586.57595201858	1308.62905413462	139.137676600757	1873.52104702768	911.827079932308	126.112832013765	2221.20717083805	1476.30857701911	128	2750.31487870066	304.479098700555	126	829.319319007762	2568.03667119628	134.213413398446	4102.01376645137
355.622940165268	139.415681676386	764.366315610641	1674.38760122754	175.604523293789	2554.85741218602	1058.52790304268	138.023779221956	2151.49821344687	1826.77411582891	147.101082211157	2629.8966401403	1674.13533433433	127.113897378801	3620.41558110201	1514.34463147559	136.039396228293	2218.72719985307	806.644052342275	125	1661.53991878417	1390.70730259241	146.4875331187	2024.30449350921	1204.22800604306	138.518506407647	2352.34387479017	1894.80016282183	161.028603197493	2769.05500040959	1406.00667974939	137.118547631051	2584.41860236852	1308.1200290649	139.112832013765	1871.62505404732	911.762121164932	126.139003823654	2219.87534233635	1474.88486536792	128	2745.21404866952	304.554400321078	126	829.825292559495	2569.70949726897	134.202418414088	4101.32487711641
355.277738637176	139.422091604195	762.694847656081	1665.92160732238	175.418369893481	2536.49879089314	1057.87211493847	138.011749802608	2148.0246111946	1823.71016364655	147.082403674188	2622.51291464993	1670.85901415465	127.101082211157	3607.40293847161	1513.26395822058	136.017801746809	2213.51655850169	805.205296006711	125	1655.89707845387	1388.27739291808	146.398631553699	2017.16555154104	1204.64843310518	138.520095129266	2351.58713978667	1892.2484728369	160.970243302896	2761.38409992857	1404.99617297282	137.130209520281	2580.58259032095	1307.33972151786	139.087053926439	1868.40173546174	911.607553207649	126.163833421114	2217.92335494018	1472.8428951942	127.998672777103	2738.24405333107	304.642169445404	126	830.31779905476	2571.84174368645	134.201321756328	4100.7558091253
354.988170121276	139.435031806201	761.257724557136	1656.75062493909	175.213835600911	2515.78853843327	1057.30091353344	138.004650252251	2144.90631415105	1819.9348984252	147.061156926116	2614.34597007392	1667.64195769511	127.082403674188	3594.78178132072	1512.4142727793	135.995349747749	2208.57831510434	803.872702860636	125	1650.64818926427	1385.82471784553	146.304158905443	2009.70726505745	1205.00674067253	138.517282574894	2350.18941799125	1888.8484209946	160.899869048056	2750.84235673567	1403.73541615758	137.137676600757	2575.08453588861	1306.30404805997	139.062484149013	1863.88412109963	911.275848534069	126.188131330422	2215.06273114721	1470.02214566424	127.995349747749	2728.98766175754	304.727637349998	126	830.703963946265	2574.12002146589	134.204723088642	4100.34740536777
354.756095341316	139.451594309524	760.071276089535	1647.55023789921	175.013780744595	2494.31879800914	1056.85273078919	138.001327222897	2142.24096602655	1815.73548931898	147.04072345119	2605.86113900855	1664.63349307057	127.061156926116	3583.40055376383	1511.85179383879	135.96779400479	2204.3005625803	802.718671877586	125	1646.16219043069	1383.54490080735	146.20894006361	2002.48448056622	1205.27253693596	138.513442536877	2348.24448256803	1884.83899281604	160.820033584971	2738.11575247918	1402.24385356264	137.141805662347	2568.19091606528	1305.04275410946	139.04072345119	1858.29422070103	910.701786389819	126.211915359552	2211.13575952939	1466.36059355648	127.988250197392	2717.33913467949	304.795187098095	126	830.891785662691	2576.21119978668	134.208050855597	4100.14037025196
354.582099160525	139.46507638204	759.13674046622	1638.9289675792	174.836791021749	2473.51962244108	1056.55319045799	138	2140.07806806638	1811.42443926754	147.023779221956	2597.49752897247	1661.97026239262	127.04072345119	3574.05353023794	1511.6060974776	135.9321742975	2201.05125911381	801.804773188074	125	1642.76285859805	1381.62777539683	146.11925992165	1996.08012542747	1205.44049915263	138.512261733613	2345.98419270986	1880.54615115674	160.734546021615	2724.28076005464	1400.56006913108	137.143560600305	2560.41286373245	1303.6016059782	139.023779221956	1852.04634915746	909.862744569553	126.235959139143	2206.18437139206	1461.94028685195	127.976220778044	2703.61964177433	304.832577605386	126	830.822106671964	2577.83930510992	134.206814674564	4100.15288107128
354.464863275605	139.471634457796	758.442113781174	1631.35407767669	174.692173338352	2454.47718475444	1056.41361980832	138	2138.42700259381	1807.30414754493	147.011749802608	2589.64317840961	1659.7654173672	127.023779221956	3567.37150394673	1511.67723438941	135.886369820086	2199.1127906886	801.174572269014	125	1640.68087716804	1380.2237813842	146.040179276815	1991.00727711155	1205.52317806297	138.514742234924	2343.74394493778	1876.33097976018	160.647698921551	2710.63405942718	1398.74020652446	137.143560600305	2552.44139192522	1302.04761863417	139.011749802608	1845.69546221576	908.786522444761	126.261317675886	2200.46533957307	1456.9905154245	127.95927654881	2688.58809636782	304.834032296381	126	830.488535754087	2578.82988311139	134.197628275886	4100.35758093575
354.405161040483	139.469378900878	757.978927092186	1625.12233387326	174.583734815716	2437.89532310025	1056.43649405242	138	2137.29348096327	1803.64705092283	147.004650252251	2582.65004826365	1658.09028409286	127.011749802608	3563.70767701748	1512.02953654484	135.832660177739	2198.62663532778	800.843043761751	125	1640.01062607823	1379.40136282286	145.976047054757	1987.60773583415	1205.54804478416	138.520208888806	2341.88721752975	1872.54309411854	160.565469191845	2698.45531334066	1396.85765079384	137.143132885243	2545.02204116464	1300.47554307316	139.004650252251	1839.84947434206	907.553210392527	126.286960546492	2194.42165554007	1451.86438668249	127.937515850987	2673.34547418208	304.802626505147	126	829.948650753634	2579.14598474078	134.179616643789	4100.68454604061
354.403927293186	139.458243427145	757.740376945262	1620.38092571263	174.508259875888	2424.11252037419	1056.62301181216	138	2136.68314357416	1800.6835383991	147.001327222897	2576.81438853964	1656.96144407611	127.004650252251	3563.09638095843	1512.59724310245	135.775790663465	2199.56905431605	800.794857796116	125	1640.69893196101	1379.13225698055	145.928674485947	1985.99616360049	1205.54607381341	138.527021094279	2340.75370134055	1869.46761223964	160.495091808519	2688.80943934606	1394.99657473641	137.143654075904	2538.85335922662	1299.00144062854	139.001327222897	1835.08221438598	906.276886682724	126.311665540638	2188.60776431331	1446.97193106795	127.911618850664	2659.14444770852	304.748693219329	126	829.314298902602	2578.87800081094	134.15462082999	4101.04617926132
354.462028250892	139.442074646384	757.731325827213	1617.15163315417	174.461418925657	2413.21488047655	1056.97591500107	138	2136.62895690464	1798.58210377755	147	2572.3917196178	1656.33850485429	127.001327222897	3565.22871379657	1513.29370664155	135.723863483927	2201.74769870678	800.98151012121	125	1642.54381888664	1379.29486428458	145.899179646705	1986.03359601384	1205.53725192805	138.534906462505	2340.57406592124	1867.27887325775	160.445158756749	2682.34209741862	1393.23670607887	137.14660957514	2534.44361639109	1297.74722036372	139	1831.81953595549	905.079732534076	126.33291228871	2183.57023304333	1442.69956733389	127.882517733985	2647.13677972685	304.686211118774	126	828.722991103226	2578.19920312644	134.124861433113	4101.35085770349
354.578364627977	139.427981165965	757.965188316497	1615.36877674391	174.439011171027	2405.14123040471	1057.49841953627	138	2137.18622595359	1797.43534659834	147	2569.57087763583	1656.13165739058	127	3569.53471711757	1514.02791021313	135.685239229338	2204.84941844197	801.33199510883	125	1645.23991923685	1379.70197784394	145.886190534578	1987.37398015641	1205.52863311437	138.543446636161	2341.41248220392	1866.02541644911	160.421917880908	2679.17729632687	1391.64659630683	137.154076655615	2532.01825278306	1296.82062697845	139	1830.25734533526	904.06919474362	126.347319306459	2179.73757182948	1439.33934714867	127.850573596635	2638.14373386493	304.630838937972	126	828.303801837497	2577.31953606017	134.094153476796	4101.53644624435
354.750117866168	139.421541917224	758.458226523044	1614.9107852422	174.438063943993	2399.76721253749	1058.19160018079	138	2138.41558168417	1797.25275049982	147	2568.44003794125	1656.21334993318	127	3575.26393558867	1514.71642643122	135.66656069237	2208.48727331045	801.760465690821	125	1648.41846556015	1380.14137124411	145.887429844096	1989.52545697318	1205.50526285992	138.552549741597	2343.1600439593	1865.62402901351	160.429536188191	2678.93326896688	1390.26669220954	137.1669121072	2531.4996364581	1296.29494825754	139	1830.33418922392	903.312303439286	126.35143583273	2177.33996026604	1437.03273670465	127.817037609181	2632.50966988804	304.593461233812	126	828.145436968344	2576.42382505497	134.065807178367	4101.59753576303
354.970195707378	139.428641467582	759.224794583283	1615.60178704166	174.457711670623	2396.96506558059	1059.04324185121	138	2140.36981449372	1797.9454257711	147	2568.9772514595	1656.44904729171	127	3581.66209475956	1515.30498333149	135.671123031242	2212.29399925935	802.184313288271	125	1651.72862470835	1380.42826169879	145.898917788843	1991.97598207864	1205.43440745781	138.562482130267	2345.52676217507	1865.88888568517	160.467727165497	2680.79767455293	1389.10789404813	137.184284051494	2532.51041875736	1296.19156050105	139	1831.7305848308	902.825164163783	126.342669054208	2176.35654686422	1435.75701817891	127.782895020996	2630.03876089026	304.576852320137	126	828.267596837183	2575.62966665889	134.042050674087	4101.56099288861
355.227112211882	139.450433165024	760.265769512279	1617.22144272737	174.497652778713	2396.59022820939	1060.019711038	138	2143.05540803219	1799.34150643467	147	2571.02780269607	1656.7268519475	127	3588.10823212789	1515.78178625488	135.698054396982	2215.99626112062	802.54160936577	125	1654.89693791995	1380.45458812028	145.917596325812	1994.30639160368	1205.27736501683	138.571253715963	2348.12792860768	1866.58103004174	160.531683764383	2683.74800267044	1388.15284507553	137.204717526421	2534.49266474381	1296.47850130048	139	1833.95581407812	902.574820902309	126.321162486102	2176.53807007109	1435.34537739977	127.750706936288	2630.07965793189	304.575629913695	126	828.615325523882	2574.9682227808	134.023779221956	4101.48651348758
355.506489406152	139.484125320471	761.556093943355	1619.50220635634	174.55784058474	2398.44472535388	1061.06370499035	138	2146.4068983915	1801.20636604107	147	2574.31629589047	1656.9768106827	127	3594.20206165057	1516.17867159253	135.742542020895	2219.45068379364	802.801339085788	125	1657.76312291086	1380.21496809575	145.938843073884	1996.2750078738	1205.00712932492	138.57457980423	2350.55949182006	1867.47386220152	160.613030335531	2686.77044061197	1387.37078733819	137.224209336535	2536.83283386048	1297.08013319411	139	1836.45173284384	902.493725981352	126.287886318682	2177.46770655086	1435.54080261051	127.722360637858	2631.68327503374	304.577224335478	126	829.067652912003	2574.39450081584	134.011749802608	4101.43215502159
355.78904314057	139.522723382615	763.041945225383	1622.13495437302	174.636897470866	2402.21615295345	1062.09259241753	138	2150.2718947902	1803.27140745671	147	2578.46874740159	1657.17111201937	127	3599.79061910671	1516.55327597439	135.797037411537	2222.64724553217	802.963356858974	125	1660.28706541972	1379.79919418778	145.95927654881	1997.8516151026	1204.62118286811	138.567399581404	2352.48750976166	1868.39501254492	160.701556711844	2689.06691885715	1386.7279379968	137.238758811913	2538.99529321969	1297.8924503013	139	1838.71270057882	902.498879676598	126.246237095302	2178.65649782932	1436.05796173414	127.70008426197	2633.81586807309	304.56747339824	126	829.469410060608	2573.82358041649	134.004650252251	4101.41919747595
356.054796631652	139.560209348321	764.641112145899	1624.7942993727	174.731370119122	2407.44297453711	1063.01003836727	138	2154.41508052441	1805.2725575967	147	2583.05134188106	1657.3211482037	127	3604.91651757028	1516.97518309294	135.853093652666	2225.66869100083	803.054385391857	125	1662.52099159025	1379.36782017575	145.976220778044	1999.18892975997	1204.15267177037	138.546677082905	2353.73880106171	1869.2551006357	160.787286474299	2690.21866160611	1386.20073719223	137.244106899082	2540.6503815468	1298.80563424657	139	1840.40062325463	902.516103722967	126.20016074977	2179.66214246776	1436.64440950157	127.68486877825	2635.58235466198	304.535717835767	126	829.672901047965	2573.1779314772	134.001327222897	4101.44575621471
356.283944049548	139.589396340552	766.24723878775	1627.17060996645	174.83643363983	2413.50318118854	1063.72215441274	138	2158.5335185865	1806.98806447428	147	2587.61076528404	1657.44414767219	127	3609.70532288635	1517.48965039555	135.90331404932	2228.61877712252	803.111062621027	125	1664.55556535323	1379.09297490463	145.988250197392	2000.53640737196	1203.66535887131	138.50911044473	2354.31886593884	1870.03950729249	160.861263375233	2690.21123826949	1385.77586290756	137.237007348724	2541.69998106361	1299.71351896518	139	1841.38234242322	902.497532841071	126.153555464955	2180.17031958372	1437.12613873104	127.678056503203	2636.36388478491	304.479654353729	126	829.572483804998	2572.43117879128	134	4101.48669236857
356.461650366523	139.607667792682	767.750250727185	1629.00992131354	174.943224227364	2419.69122939367	1064.1562981917	138	2162.31610117502	1808.26711327046	147	2591.74805921675	1657.55729052592	127.001327222897	3614.26441673072	1518.11461749122	135.942876493951	2231.55707923894	803.1699795309	125	1666.46871802894	1379.12134770948	145.995349747749	2002.14030141627	1203.24293793914	138.458676704427	2354.39815542511	1870.78500281941	160.919097271995	2689.36867915712	1385.44889000212	137.216306812854	2542.25508716187	1300.52593414143	139	1841.72320457743	902.428596502244	126.110833148395	2180.03625617266	1437.41919281921	127.677789907741	2635.87964502022	304.405241116599	126	829.125069845518	2571.62485827943	134	4101.49217555432
356.578887930131	139.61426672408	769.051126910454	1630.1502266059	175.04355162027	2425.30201375976	1064.27476048557	138	2165.4891131652	1809.04907695063	147	2595.16000008069	1657.6612050974	127.004650252251	3618.60549492258	1518.83223938173	135.970243302896	2234.45668883014	803.256772733612	125	1668.28789300272	1379.53397877311	145.998672777103	2004.15277151849	1202.9726557376	138.40137391287	2354.24881561076	1871.54373059069	160.958493500288	2688.20624744872	1385.21927015206	137.183485885345	2542.55180053845	1301.1719396836	139	1841.61977782743	902.326089713841	126.074233951621	2179.29073035746	1437.52558124649	127.682352177041	2634.16853772709	304.326872762363	126	828.356239674639	2570.86410787103	134	4101.4284279509
356.636781040377	139.612226607161	770.074189372585	1630.54826896527	175.12968540865	2429.73386960399	1064.09173305157	138	2167.85873551071	1809.37558984803	147	2597.66851858817	1657.74547214398	127.011749802608	3622.61996356949	1519.60209662862	135.986922974495	2237.19343220964	803.385699454993	125	1669.97839659993	1380.34078427016	146	2006.57721431449	1202.92554809744	138.348467243847	2354.15062024556	1872.34801693566	160.982272722244	2687.23228904618	1385.0799997276	137.143560600305	2542.82971425325	1301.59448902293	139	1841.2925735904	902.222943109541	126.045373703441	2178.09451111017	1437.49649424535	127.6887415442	2631.49749683308	304.259992352874	126	827.344180477612	2570.26445199634	134	4101.28318581235
356.643445009586	139.60633230779	770.7804991641	1630.26761949792	175.196972695462	2432.5800606748	1063.66185490763	138	2169.34747996699	1809.35995408821	146.998672777103	2599.23421693543	1657.79213830539	127.023779221956	3626.10240029068	1520.36883358413	135.995349747749	2239.56953378947	803.558953170187	125	1671.45211204803	1381.48442234569	146	2009.26553384248	1203.14570306134	138.310726699279	2354.30854566344	1873.19535924265	160.994022524852	2686.79383391296	1385.0153012484	137.101880377306	2543.23563562447	1301.75207170324	139	1840.89959458404	902.153854688105	126.025106444853	2176.6692172838	1437.40448279552	127.694723756948	2628.24276318913	304.218312129875	126	826.194549760127	2569.91772647794	134	4101.0664329995
356.611065291089	139.60173096566	771.165681476947	1629.45262430533	175.243059292925	2433.65573347355	1063.0700637546	138	2169.98152349169	1809.15804668269	146.995349747749	2599.91796015514	1657.79167286451	127.042050674087	3628.81394416337	1521.08526366002	135.998672777103	2241.36135134276	803.773354320113	125	1672.5973810717	1382.87143395825	146	2011.9577986404	1203.64203399718	138.296065551813	2354.79038713272	1874.04368652658	160.997345554206	2686.96914557794	1385.0005986357	137.064502673146	2543.76354984529	1301.61714796899	139	1840.47265819895	902.139782249009	126.011749802608	2175.24766572462	1437.3092678423	127.697145599778	2624.80176727079	304.207889550164	126	825.021419919314	2569.84494294112	134	4100.8271269621
356.553252383689	139.601158561013	771.258209957123	1628.29066179241	175.268430295413	2432.99814067224	1062.40742706036	138	2169.87101764118	1808.92393467223	146.988250197392	2599.84602899687	1657.74442604083	127.065807178367	3630.53943504556	1521.71493759881	136	2242.36630101836	804.024493363647	125	1673.30587479023	1384.39053654401	146	2014.34493536643	1204.38951769613	138.308971761321	2355.49999345821	1874.82120603792	160.995349747749	2687.54600400157	1385.00149139078	137.035529024564	2544.23815704281	1301.1770877011	139	1839.90161605351	902.178956815746	126.004650252251	2174.0084376032	1437.242829705	127.696499374756	2621.50462027666	304.225790551206	126	823.923566952837	2569.98693614523	134	4100.61173740865
356.481123141265	139.605813550865	771.109775190597	1626.97611426041	175.274809293177	2430.83433181448	1061.755235492	138	2169.17965771821	1808.77923183662	146.976220778044	2599.17471527974	1657.66968321502	127.094153476796	3631.16961254819	1522.24177445949	136	2242.4566411573	804.310411682777	125	1673.51493726514	1385.94187578328	146	2016.1498651593	1205.33284941853	138.345665405154	2356.21298444115	1875.45017649086	160.988250197392	2688.09811246792	1384.98288101532	137.016400054859	2544.36856474019	1300.44119999079	139	1838.97832254606	902.250614724387	126.002654445794	2173.06422978523	1437.2069300738	127.693145415356	2618.59296824594	304.26104286632	126	822.977053072366	2570.22160478273	134	4100.47333081729
356.40550297446	139.613201359044	770.786345005027	1625.68383476756	175.265889559533	2427.51977900094	1061.17217152599	138	2168.08211906856	1808.79785346695	146.95927654881	2598.05633075281	1657.60331083291	127.124861433113	3630.75335761008	1522.66975573311	136	2241.6175494918	804.63484269207	125	1673.233686352	1387.44862573398	146	2017.1939285834	1206.40123739262	138.397229861749	2356.64520223288	1875.87248982533	160.976220778044	2688.12797998405	1384.91497138373	137.005977475148	2543.84024353592	1299.4455664283	139	1837.47551791219	902.322212999548	126.004650252251	2172.46267362413	1437.18321678657	127.68954444795	2616.21757824537	304.297383264146	126	822.229848046959	2570.40295383821	134	4100.46415716099
356.332588379649	139.619269447344	770.356312684534	1624.55199010006	175.244642811461	2423.4867602491	1060.6865380716	138	2166.74070181368	1808.99732238773	146.938843073884	2596.63562797503	1657.59902089603	127.15462082999	3629.51736079838	1523.02655912959	136	2239.95810457721	805.009820506456	125	1672.55481125552	1388.87052890833	146	2017.43689346705	1207.5110084287	138.452787142658	2356.52091059153	1876.05756580988	160.95927654881	2687.19529428093	1384.77519825647	137.001327222897	2542.39155592633	1298.24849611246	139	1835.21473254565	902.356602348719	126.011749802608	2172.19178201879	1437.14031825354	127.689431117122	2614.43631478521	304.317039252771	126	821.6965196843	2570.39442455797	134	4100.61575672913
356.268946145049	139.619936352216	769.890337576243	1623.6843861263	175.215777756107	2419.20494257168	1060.30705991932	138	2165.30409901127	1809.36165380461	146.917596325812	2595.06521369292	1657.72185438209	127.179616643789	3627.84041282507	1523.36097470721	135.998672777103	2237.69851865048	805.453437668896	125	1671.64616317545	1390.20127363008	146	2016.98025925772	1208.58267926552	138.501678637727	2355.64781278941	1876.01911292236	160.938843073884	2685.04771690475	1384.55884328854	137	2539.89449041409	1296.93493412598	139	1832.13558243535	902.327191219105	126.023779221956	2172.20710472668	1437.05154970125	127.694194700201	2613.24210876335	304.304747975562	126	821.361845133469	2570.11493821804	134	4100.94852407382
356.218579328761	139.613747967155	769.450308727014	1623.14951008766	175.182962390819	2415.14775490824	1060.02540797545	138	2163.90028289262	1809.85158698022	146.898917788843	2593.50623895198	1658.03679324687	127.197628275886	3626.22401404545	1523.7336472231	135.995349747749	2235.15495116668	805.987936780526	125	1670.7361265964	1391.46492177437	146	2016.05314648095	1209.54294137635	138.535188779019	2353.96736405695	1875.80135831399	160.917596325812	2681.69098571952	1384.27254198035	137	2536.40603176039	1295.60163860691	139	1828.33340466694	902.219540680261	126.04072345119	2172.454217227	1436.89730041127	127.703567995067	2612.58071730986	304.251209356729	126	821.186911808201	2569.54684889737	134	4101.47657156219
356.184639384955	139.601687617761	769.094968408129	1622.97896414402	175.150753626262	2411.77482057333	1059.82417361231	138	2162.65575168756	1810.41734194205	146.8861026212	2592.14840225643	1658.59630224534	127.206814674564	3625.19177694086	1524.20999238811	135.988250197392	2232.68865284986	806.63261102639	125	1670.0655697379	1392.7046821784	146.001327222897	2014.95437718719	1210.32522021648	138.549906636659	2351.55036805894	1875.46736788369	160.898917788843	2677.37291970739	1383.93427492041	137	2532.15406146503	1294.35110706763	139	1824.04830274212	902.03436601439	126.061156926116	2172.88758944246	1436.67074841061	127.715628344461	2612.37517636804	304.152669164231	126	821.118508607041	2568.73357767051	134	4102.20763598576
356.167265353208	139.58668458116	768.877338579708	1623.17418350883	175.122132518266	2409.50472511418	1059.68459307747	138	2161.70516665593	1811.01274285441	146.881540282327	2591.20099244184	1659.43319572888	127.209378078494	3625.23814571881	1524.85165329852	135.976220778044	2230.67776007442	807.400230437246	125	1669.8608397972	1393.97177465505	146.004650252251	2014.01348840307	1210.88201420786	138.546699045533	2348.58649983021	1875.09760477458	160.8861026212	2672.53657232744	1383.57636134878	137	2527.51761146148	1293.28485664247	139	1819.63999921426	901.790445408072	126.082403674188	2173.47292980454	1436.38595667245	127.724792025463	2612.5356736521	304.014202008004	126	821.09872736011	2567.77327058934	134	4103.12669340078
356.167265353208	139.573276074004	768.842229984454	1623.71069981751	175.101458174841	2408.67241680167	1059.59068359766	138	2161.18822603889	1811.60315976744	146.8861026212	2590.86803429783	1660.55038330839	127.208046117996	3626.73545157132	1525.70190297098	135.95927654881	2229.45991890802	808.291640702365	125	1670.29092800006	1395.31177458254	146.013077025505	2013.52645849571	1211.1849751728	138.528775326815	2345.34500730547	1874.77682752817	160.881540282327	2667.72406834119	1383.23871766715	137	2522.9685806233	1292.49788770886	139	1815.53330516946	901.516630857223	126.102409434054	2174.19731677527	1436.07150352487	127.727451208858	2612.98521844027	303.845661486523	126	821.077695684391	2566.78127308687	134.001327222897	4104.20936266811
356.184639384955	139.563897266542	769.027387559679	1624.54269191847	175.09091362322	2409.49278855535	1059.53586485002	138	2161.24554876144	1812.16764278804	146.898917788843	2591.31926169216	1661.91470289897	127.207094083788	3629.89353100003	1526.77084822714	135.938843073884	2229.29493895685	809.290414407004	125	1671.45312245626	1396.74387575487	146.028429474207	2013.71991852636	1211.22929765556	138.501297679301	2342.11197227835	1874.59000082038	160.8861026212	2663.45542920362	1382.96526933396	137	2518.97712793887	1292.06594582936	139	1812.1394135237	901.248719866267	126.119874853948	2175.05726022315	1435.7751687935	127.719999187487	2613.65996609854	303.66243745904	126	821.020714635972	2565.87132148283	134.004650252251	4105.40032914981
356.219906551658	139.561329055438	769.458154623823	1625.61193409665	175.094523927885	2412.01110705955	1059.52086489221	138	2161.99181548856	1812.69879559753	146.917596325812	2592.64951722197	1663.45961218182	127.209797581185	3634.71494364945	1528.02689373966	135.917596325812	2230.3197150992	810.36361659332	125	1673.3557200029	1398.25546601238	146.052473253798	2014.71683158415	1211.0369535021	138.468849844131	2339.15789203106	1874.61071376044	160.898917788843	2660.15452846509	1382.79521089757	137	2515.95425616601	1292.03821694575	139	1809.7973307275	901.023170089092	126.134859772532	2176.06088496566	1435.55418345867	127.703148492376	2614.52945849579	303.482276640875	126	820.916107509742	2565.12404747932	134.011749802608	4106.62960921837
356.273596397299	139.565657766721	770.140852672552	1626.85111570741	175.113365622279	2416.07546833182	1059.5531748694	138	2163.48507828429	1813.19713743614	146.938843073884	2594.84478254093	1665.08900350389	127.217280602175	3641.00290601423	1529.39294538694	135.898917788843	2232.52692502731	811.464276364798	125	1675.92805736719	1399.79243450306	146.084936148072	2016.52708416461	1210.65095612164	138.434364950955	2336.70697171779	1874.89027212467	160.917596325812	2658.09515617419	1382.75343853138	137	2514.19014424608	1292.42287912677	139	1808.72555437278	900.874456031337	126.150753626262	2177.23509044114	1435.47710304882	127.680309963772	2615.61793048795	303.324949613714	126	820.781933013721	2564.59008422727	134.023779221956	4107.82931581095
356.344338182258	139.575629913695	771.060670279484	1628.18370673333	175.146626730595	2421.34671040489	1059.63909777369	138	2165.70431768987	1813.65952279425	146.95927654881	2597.77688412254	1666.68598671275	127.22804631564	3648.39918264058	1530.75134134124	135.8861026212	2235.76920313523	812.535712036332	125	1679.04023845155	1401.26368505086	146.123127125378	2019.05842292857	1210.128037615	138.400046689974	2334.91732667129	1875.44089301713	160.938843073884	2657.38398204473	1382.84013245513	137.001327222897	2513.81723970252	1293.1818342018	139	1808.99402664182	900.82723781389	126.170235136553	2178.61857678213	1435.60776156036	127.65805630556	2617.00391975129	303.208598129633	126	820.66228626235	2564.27559802353	134.04072345119	4108.92709832359
356.430609419313	139.589746111791	772.180916318768	1629.54189674579	175.19066861148	2427.34606216798	1059.78246055501	138	2168.54123952693	1814.08591020796	146.976220778044	2601.22674926016	1668.13565154431	127.238351727076	3656.45569866392	1531.96521402942	135.881540282327	2239.78710791494	813.52134443141	125	1682.53370094853	1402.55723446836	146.162239137273	2022.14639745429	1209.52557281773	138.366801522172	2333.88666554837	1876.22520944735	160.95927654881	2657.99267549435	1383.02580273547	137.004650252251	2514.81660129888	1294.22839480098	139	1810.53384627202	900.898716044064	126.196033854103	2180.27940183963	1436.00380001226	127.643188555251	2618.84125103658	303.148239369666	126	820.628718199502	2564.17054854874	134.061156926116	4109.87166706535
356.529151290499	139.604255828865	773.442517169999	1630.86691232086	175.239678949973	2433.52000848487	1059.97859670404	138	2171.80521562129	1814.47457144757	146.988250197392	2604.91984538222	1669.33995739636	127.243321150786	3664.7134140385	1532.90046016444	135.8861026212	2244.25709823907	814.374553852569	125	1686.25315206027	1403.55893867247	146.197628275886	2025.59087547027	1208.89402026251	138.334587245019	2333.66359638227	1877.16159442686	160.976220778044	2659.79624216551	1383.25667493058	137.011749802608	2517.03692272322	1295.44028858727	139	1813.16067848465	901.094915409084	126.228496748377	2182.29891565275	1436.70368563589	127.641454247517	2621.32403359974	303.153225948831	126	820.764427831057	2564.2557295057	134.082403674188	4110.62497559139
356.639441285605	139.617063755599	774.778116648432	1632.13202324838	175.286676330094	2439.35543652231	1060.22238824563	138	2175.27038166992	1814.83874315482	146.995349747749	2608.60733691804	1670.23856540862	127.239544560209	3672.80049629466	1533.45545549216	135.898917788843	2248.85811223651	815.066448551908	125	1690.08080986907	1404.18195070421	146.22419218108	2029.21046138805	1208.27062782889	138.304588707956	2334.25122154607	1878.13441663001	160.988250197392	2662.61243594372	1383.46275715253	137.023779221956	2520.22454794137	1296.67747871854	139	1816.60602027726	901.409549908446	126.264932787725	2184.75848199212	1437.71462385921	127.654722976384	2624.64262376175	303.225089808999	126	821.145807710175	2564.51234425465	134.101082211157	4111.15838763741
356.761334663686	139.62434190206	776.123202506468	1633.34235140299	175.327925709545	2444.46617187392	1060.50276017159	138	2178.71797792279	1815.2044689203	146.998672777103	2612.11512304536	1670.82168933485	127.22419218108	3680.46223422701	1533.58217706016	135.917596325812	2253.30918273824	815.592784287646	125	1693.94181901185	1404.3895006691	146.240871783106	2032.8677135064	1207.67998530271	138.278443090512	2335.61590003884	1879.01474670819	160.995349747749	2666.23048844178	1383.57048084176	137.04072345119	2524.06450427225	1297.80206809682	139	1820.55433387537	901.826274166549	126.29991573803	2187.70613515573	1439.01164800773	127.681654342123	2628.91496778587	303.35636226058	126	821.820084782036	2564.93681656881	134.1138973788	4111.43702881011
356.899273122304	139.62416811313	777.429108788814	1634.54753282554	175.362130639698	2448.66606266382	1060.81732646955	138	2181.98340945965	1815.62194347733	147	2615.38189505213	1671.12809213217	127.197628275886	3687.57123905698	1533.29379344923	135.938843073884	2257.39864880642	815.971993310882	125	1697.79891350384	1404.20872838095	146.249298625933	2036.48398899312	1207.13368561387	138.257261538142	2337.68156063614	1879.68233326101	160.998672777103	2670.42010826868	1383.51566004435	137.061156926116	2528.21412593813	1298.69815188526	139	1824.67246425578	902.313642643795	126.32651057327	2191.13916879401	1440.52506431934	127.717435576042	2634.13999159986	303.529949456649	126	822.792829776001	2565.5103567921	134.118459717673	4111.43283792722
357.059233777468	139.614149489771	778.672790021293	1635.82889967523	175.392428382691	2452.00292459157	1061.168106963	138	2184.99261800369	1816.14924689916	147	2618.46686192334	1671.2301137079	127.162239137273	3694.09051673469	1532.65436611515	135.95927654881	2260.98667986314	816.239027900514	125	1701.62976414972	1403.72523372673	146.254751781934	2040.03150942571	1206.63488160167	138.241936614291	2340.33583203375	1880.04489488398	161	2674.94453425806	1383.25240446005	137.082403674188	2532.34519518607	1299.28500840464	139	1828.64651228574	902.831063856072	126.338089559881	2194.97183090277	1442.15328636618	127.756313960347	2640.15005522915	303.722796219006	126	824.017353359409	2566.20970936185	134.1138973788	4111.10069623944
357.246840858316	139.593525402142	779.860315778357	1637.28469275704	175.424085731964	2454.73058515609	1061.56455103572	138	2187.76672151334	1816.84513162283	147	2621.51405394691	1671.22342167111	127.123127125378	3700.01915025887	1531.7729001343	135.976220778044	2263.99075011661	816.439397719275	125	1705.40112018552	1403.07620727676	146.263575340204	2043.50958742924	1206.1778193134	138.233698775051	2343.43230325542	1880.04790747832	161	2679.56562639614	1382.75705494953	137.101082211157	2536.17689779321	1299.52059850531	139	1832.21089022264	903.332575724582	126.330204191655	2199.0474776204	1443.77198327011	127.791936726549	2646.62941706735	303.909353575666	126	825.403469447135	2566.98638601135	134.101082211157	4110.41051436112
357.464282164233	139.561622446769	781.019652326289	1639.0016903993	175.462815055385	2457.24061695723	1062.0157044896	138	2190.40400289691	1817.74228817275	147	2624.69677296592	1671.19459858822	127.084936148072	3705.31723675688	1530.76976746257	135.988250197392	2266.35346207954	816.616592116254	125	1709.04010962218	1402.41742724297	146.281783275321	2046.90793202329	1205.75255970217	138.232177810965	2346.79893417881	1879.67728986138	161	2684.04849842396	1382.03000806506	137.1138973788	2539.49529128552	1299.40139144446	139	1835.16702403491	903.771519630257	126.301945603018	2203.13894514749	1445.25435557557	127.820910375131	2653.1408802817	304.066925305234	126	826.827502809596	2567.76968585368	134.082403674188	4109.34072985905
357.707358612612	139.518506407647	782.189769577218	1641.02697456772	175.512891121592	2459.95992148353	1062.52474170013	138	2193.0414173809	1818.83353396933	147	2628.15646322599	1671.20188214074	127.052473253798	3709.88641694809	1529.7557156358	135.995349747749	2268.03197415199	816.800569850779	125	1712.43419619899	1401.89196029692	146.313005181388	2050.19004854488	1205.34124009372	138.238067372735	2350.24658899245	1878.95070504308	161	2688.16760460599	1381.08860599044	137.118459717673	2542.15693862434	1298.94973084977	139	1837.38840594532	904.108815772221	126.258785202002	2206.98746246808	1446.48624403265	127.841794282795	2659.1980839109	304.177761153403	126	828.153308895854	2568.46831889243	134.061156926116	4107.90501461769
357.964278245602	139.468666006856	783.404006628836	1643.33773140955	175.57564706915	2463.2475077409	1063.07937618658	138	2195.8045882508	1820.058739682	147	2631.95325932287	1671.26832712343	127.028429474207	3713.57644892174	1528.81840741152	135.998672777103	2269.00118666801	817.007462135359	125	1715.44809182134	1401.61163541311	146.355304936344	2053.29252966436	1204.92993859581	138.249836972049	2353.59284173875	1877.91639588038	161	2691.72926163829	1379.96953732393	137.113897378801	2544.09295335198	1298.21105084679	138.998672777103	1838.8214393261	904.317472337682	126.207612840713	2210.33711962281	1447.3873476842	127.856345924096	2664.34218933793	304.233482078973	126	829.252847951155	2568.98890938568	134.04072345119	4106.16498056047
358.214624256496	139.418053584469	784.67361945756	1645.82864469667	175.650143482057	2467.29877099023	1063.64255158239	138	2198.75489060329	1821.30516355397	147	2636.03138856794	1671.38092980825	127.013077025505	3716.24050123614	1528.01956438633	136	2269.28009249747	817.238032984328	125	1717.9584298207	1401.64510748413	146.404609028846	2056.14722310427	1204.50546196557	138.26638747872	2356.659662706	1876.63675337278	161	2694.56547559204	1378.72095680881	137.101082211157	2545.28114400554	1297.23895661898	138.995349747749	1839.46408637846	904.383968313977	126.158656149942	2212.97812531108	1447.91440892118	127.867136033925	2668.21804707881	304.233499234427	126	830.023411098336	2569.24477358598	134.023779221956	4104.23210576567
358.434695242074	139.374271523618	785.978779255561	1648.32587533497	175.731577966583	2472.10166943718	1064.16027963425	138	2201.8609100973	1822.43587825784	147	2640.22877575855	1671.50945172215	127.004650252251	3717.8087780208	1527.40547912438	136	2268.96714227254	817.485553835429	125	1719.89433057576	1402.02373365222	146.452787142658	2058.71846342146	1204.06585302867	138.287214676209	2359.29630129189	1875.18827103498	161	2696.5652820313	1377.40578009887	137.082403674188	2545.74518833578	1296.09835162296	138.988250197392	1839.36155425646	904.308783037109	126.120465172637	2214.78285174208	1448.06581709927	127.875474893801	2670.63597004625	304.1827545882	126	830.403149292734	2569.17590005219	134.011749802608	4102.26152595467
358.601333073558	139.346870656141	787.268102183555	1650.6131823752	175.815715948506	2477.44928912677	1064.56674056569	138	2205.00164845084	1823.3161044946	147.001327222897	2644.32191317647	1671.6360137856	127.001327222897	3718.3698970228	1527.02562940892	136	2268.27257240662	817.748710497562	125	1721.27307797257	1402.76327957482	146.492972247733	2061.03974602955	1203.62626031084	138.310048467212	2361.39172117386	1873.66310414045	161	2697.68617090367	1376.1018959374	137.061156926116	2545.5476470026	1294.86386006092	138.976220778044	1838.59892946109	904.109327137023	126.097846957239	2215.71626261137	1447.88022895347	127.879863288191	2671.58648490765	304.091426373195	126	830.374826360266	2568.77368051663	134.004650252251	4100.4176745327
358.698546043159	139.343295534898	788.465177574391	1652.48385612336	175.898119622694	2482.97209638939	1064.80477299046	138	2207.97926773307	1823.85757223146	147.004650252251	2648.06588590859	1671.7666885569	127	3718.18795467378	1526.93585453118	136	2267.51023861768	818.034024433285	125	1722.20814831685	1403.87341037808	146.520898995579	2063.22983564776	1203.21316526112	138.333260022122	2362.87374534596	1872.15709899637	161	2697.95454619092	1374.89495899255	137.04072345119	2544.77238668732	1293.61549029526	138.95927654881	1837.28545733163	903.808696474264	126.09091362322	2215.83816086501	1447.41860516608	127.8760898261	2671.22973729423	303.969195696739	126	829.963993361966	2568.0675360073	134.001327222897	4098.85370652769
358.720590957381	139.365724816281	789.487632424827	1653.78547456908	175.974893555147	2488.23926669971	1064.84097066462	138	2210.58046896085	1824.03840101376	147.011749802608	2651.26317763926	1671.94345443549	127	3717.67981584916	1527.19980001925	136	2267.05188548033	818.359593379441	125	1722.88806493575	1405.36964140086	146.53545063688	2065.47929919974	1202.87071393864	138.358018733563	2363.71740680506	1870.78001800376	161.001327222897	2697.46583332424	1373.87733320447	137.023779221956	2543.52154681907	1292.43888028259	138.938843073884	1835.54890642431	903.442754550853	126.09680792259	2215.26706909391	1446.76391469588	127.857940345879	2669.82513919303	303.826682702592	126	829.22431229485	2567.14899192797	134	4097.65770846158
358.675579443033	139.413921881628	790.264956900351	1654.45302154053	176.046084094154	2492.84292413691	1064.6744695906	138	2212.62149522712	1823.9070429868	147.023779221956	2653.79084341515	1672.23393652465	127	3717.33147837227	1527.86807404372	136	2267.24835007691	818.751572153182	125	1723.53616847065	1407.26836462872	146.54185235232	2068.00957031211	1202.64994793805	138.38417555392	2363.94206137208	1869.63985188105	161.005977475148	2696.3658898218	1373.13365218749	137.011749802608	2541.90352351341	1291.41614430171	138.917596325812	1833.52143506621	903.049565325187	126.110382715658	2214.15730881795	1446.00188344355	127.820539924043	2667.67644252839	303.672583063262	126	828.227096553355	2566.14371603388	134	4096.86863208159
358.582749526797	139.480283603765	790.755955993269	1654.52218957739	176.11137732277	2496.48042232311	1064.34224734839	138	2213.99122484883	1823.56982605595	147.04072345119	2655.60809477374	1672.70716687192	127	3717.57641149145	1528.95590333096	136	2268.33444462591	819.233713330003	125	1724.35066688999	1409.57229274342	146.545625814411	2071.00830241764	1202.60359169461	138.411882368133	2363.59546405555	1868.8414630445	161.017727277756	2694.82310155577	1372.73080291217	137.004650252251	2540.01348815399	1290.61677095123	138.898917788843	1831.32398479801	902.66600048743	126.126974404306	2212.66009956186	1445.21229320671	127.763507252343	2665.05850918316	303.514472987579	126	827.045751071391	2565.19173081514	134	4096.46417629829
358.469106139771	139.554667519964	790.956258169736	1654.11259657861	176.172661716984	2498.99804700222	1063.90691484432	138	2214.66859646345	1823.15421994506	147.061156926116	2656.7380222875	1673.40890920582	127	3718.67648444561	1530.42158886457	136	2270.35425271094	819.818668918314	125	1725.44885499773	1412.25417430722	146.5543124077	2074.56791766609	1202.77903396879	138.440682227785	2362.7509377411	1868.47604145568	161.040179276815	2693.01394016323	1372.7117929509	137.001327222897	2537.94291525438	1290.09420378009	138.8861026212	1829.06928843266	902.325729198098	126.142238939629	2210.90073769382	1444.46414665141	127.689806909236	2662.17978584076	303.359693689872	126	825.746105780482	2564.42371703628	134	4096.37472053846
358.363199953077	139.625360946264	790.896878109995	1653.39873905941	176.230502854656	2500.39171437902	1063.44297151387	138	2214.71154065869	1822.77880994938	147.082403674188	2657.23202498187	1674.34462776984	127	3720.66801490983	1532.1657202682	136	2273.14588713068	820.503651427231	125	1726.84706169759	1415.24431067676	146.570818134815	2078.65235082232	1203.2069455207	138.468068833436	2361.50832535899	1868.60913263965	161.076252475754	2691.11804101363	1373.08548729276	137	2535.79208643002	1289.87619786189	138.881540282327	1826.8741317916	902.051251151504	126.15462082999	2208.97739924375	1443.80512289057	127.608380083281	2659.18313374952	303.215367971495	126	824.387944474875	2563.92227850734	134	4096.51054416739
358.288792278169	139.682624183101	790.63242791902	1652.5630882672	176.284044601976	2500.77568141836	1063.01868337474	138	2214.23145565525	1822.52166449983	147.101082211157	2657.14621052964	1675.46786414506	127	3723.35235451251	1534.03661784506	136	2276.3753171036	821.267104321085	125	1728.45967492962	1418.42429226967	146.595564915637	2083.09213080307	1203.89271415921	138.490848907144	2359.99220037036	1869.26764687996	161.125659599262	2689.31476645795	1373.82713891733	137	2533.68694739152	1289.96655733277	138.8861026212	1824.87155259107	901.851970184773	126.162239137273	2206.95847655944	1443.26265885031	127.530356541486	2656.15459463698	303.08811395045	126	823.0216066333	2563.70469071542	134	4096.76777680984
358.261145852484	139.717433676157	790.2288158419	1651.76272327045	176.329675134907	2500.33115131222	1062.68206443747	137.998672777103	2213.35890908707	1822.41228480796	147.113897378801	2656.52841999762	1676.68875696112	127	3726.36084550363	1535.85967013111	136	2279.62193325462	822.070778260818	125	1730.13314601563	1421.63385719876	146.624777217169	2087.61764436236	1204.80750299547	138.503695074407	2358.34810217537	1870.42562549542	161.185611274391	2687.77776299377	1374.87678939238	137	2531.78620843794	1290.34106470098	138.898917788843	1823.2156420128	901.727633846404	126.164807348377	2204.89809228846	1442.84706507841	127.4663999426	2653.15969737261	302.984203708155	126	821.692896353554	2563.72521920822	134	4097.03715216798
358.28236988288	139.725774214722	789.747148697831	1651.09605998433	176.363102529134	2499.24771118412	1062.44926774193	137.995349747749	2212.20921298753	1822.430039389	147.118459717673	2655.418616984	1677.88257850148	127	3729.26954625185	1537.46115115613	136	2282.49502330072	822.862526591134	125	1731.70067420423	1424.68047590079	146.654260125793	2091.92415676708	1205.89028184148	138.502106352788	2356.73098165138	1872.00354817129	161.250620286609	2686.66069106297	1376.14997030229	137.001327222897	2530.26707643583	1290.95173823457	138.917596325812	1822.06816218153	901.668541668429	126.162239137273	2202.8500919545	1442.55453292079	127.42488593594	2650.27339981173	302.908502868882	126	820.444420482486	2563.88203338176	134	4097.21773226112
358.345927263016	139.708044237192	789.232300369058	1650.60052070124	176.379786938334	2497.69136117436	1062.30782962337	137.988250197392	2210.86726103158	1822.52363934075	147.113897378801	2653.86842016523	1678.91864586382	127	3731.72259951604	1538.70405949991	136	2284.73492623785	823.58567018714	125	1733.0345122806	1427.36841489434	146.677777489888	2095.74099263734	1207.05132599271	138.482432433712	2355.29553280459	1873.86876376904	161.313783319004	2686.09507023727	1377.54378619589	137.004650252251	2529.31412051992	1291.73301087461	138.938843073884	1821.58477676219	901.664225602917	126.15462082999	2200.88223760193	1442.38136975886	127.4101680783	2647.600704773	302.865325312411	126	819.316957017342	2564.0568090827	134	4097.22143386681
358.4363250366	139.666716485207	788.714013292454	1650.26143063285	176.378545950127	2495.79167883477	1062.22223601139	137.976220778044	2209.38754251644	1822.6335712943	147.101082211157	2651.96230856018	1679.68884468482	127	3733.52876999782	1539.51055059818	136	2286.27237166724	824.189768021842	125	1734.08360789212	1429.52414508113	146.693583430239	2098.88799303275	1208.18111963543	138.444272456025	2354.17067442663	1875.84708882395	161.370295555091	2686.16516954232	1378.94906959581	137.011749802608	2529.07860266993	1292.60655518648	138.95927654881	1821.883559933	901.709848815938	126.142238939629	2199.08243207998	1442.33516905862	127.421379534793	2645.28917752978	302.857946145314	126	818.34988323488	2564.16148796795	134	4096.97689519444
358.538105082674	139.608636982345	788.203175732107	1650.03523414874	176.360134474102	2493.64023397593	1062.15051982001	137.95927654881	2207.79656339603	1822.7151833836	147.082403674188	2649.81642100795	1680.12239806304	127	3734.69583836423	1539.86241270725	136	2287.22180095888	824.633536083523	125	1734.87983545653	1431.01583337593	146.701035521183	2101.29642982229	1209.16853816314	138.388994722283	2353.45122623004	1877.74916441538	161.415407400671	2686.91322055723	1380.26573969922	137.023779221956	2529.6591392463	1293.49605553082	138.976220778044	1823.02629663578	901.812909061404	126.125647181409	2197.57759455945	1442.44512971371	127.454368357329	2643.54578662213	302.891484170595	126	817.588714119319	2564.16899242089	134.001327222897	4096.47014694665
358.637054038698	139.540551321868	787.706494362184	1649.87773753954	176.329043047154	2491.32819509062	1062.05776502414	137.938843073884	2206.13032568201	1822.75231801389	147.061156926116	2647.59531697865	1680.19795851302	127	3735.40706910132	1539.79213271808	136	2287.81865797083	824.892998103136	125	1735.51900989049	1431.76799168977	146.701551149622	2103.00425848746	1209.91292543273	138.321510219514	2353.1826968515	1879.389185288	161.447069487545	2688.32900158399	1381.40716097224	137.04072345119	2531.07504001301	1294.33086379312	138.988250197392	1824.99892807453	901.993250551196	126.107059686304	2196.50607920325	1442.76128861733	127.502985042832	2642.59341961476	302.971857979795	126	817.077992985881	2564.13895171323	134.004650252251	4095.71530765035
358.724802325286	139.469871257843	787.231871169507	1649.75552525597	176.291232065711	2488.95831015337	1061.92511964289	137.916269102915	2204.44739459419	1822.75007353483	147.04072345119	2645.48540151961	1679.94454019638	127	3735.93525902135	1539.36022330763	136	2288.31395077215	824.962725161493	125	1736.11685343064	1431.76772505663	146.697074841855	2104.11603805558	1210.33792901496	138.249315781388	2353.35996229583	1880.61674526877	161.464723086406	2690.3517414949	1382.31161092279	137.061156926116	2533.25227936768	1295.05411358134	138.995349747749	1827.70154124059	902.2787536275	126.088381149336	2196.0149482545	1443.34541520635	127.560644995112	2642.65733000096	303.104340282022	126	816.866137214968	2564.2046995851	134.013077025505	4094.7803883277
358.79798867075	139.4047196599	786.79858548547	1649.66065215498	176.252638810742	2486.65729150902	1061.75474861835	137.894267536593	2202.84154598721	1822.72767984341	147.023779221956	2643.66500004633	1679.41926756971	127	3736.5400203255	1538.62372094599	136	2288.87217134741	824.849360033568	125	1736.76415163341	1431.0539592856	146.688496841793	2104.75667685998	1210.40640288318	138.179089624869	2353.93938070551	1881.33684001404	161.470179370893	2692.87834052374	1382.94485284789	137.082403674188	2536.03291575076	1295.62810953231	138.998672777103	1830.95480119592	902.693729419773	126.072906728724	2196.23139643774	1444.24979486328	127.620386784953	2643.91972332083	303.291874439024	126	816.998607580425	2564.53180786659	134.028429474207	4093.7801017822
358.858738512028	139.350227744027	786.440851072037	1649.6103448156	176.219121774823	2484.58111807428	1061.56585740181	137.874352818591	2201.44612186353	1822.70152303591	147.011749802608	2642.28464448431	1678.69295065537	127	3737.3659056944	1537.61838939178	136	2289.49791613128	824.569686772525	125	1737.48738764607	1429.70815225642	146.67513852086	2105.02430066056	1210.11587900242	138.119607655062	2354.81564536215	1881.52524194859	161.465070819819	2695.75510449893	1383.29409999005	137.101082211157	2539.16002900283	1296.01825606503	139	1834.48853745984	903.245523619557	126.065829896043	2197.22310841985	1445.48704045622	127.677706731964	2646.50433105423	303.531439283173	126	817.513982124298	2565.26150114739	134.053800476695	4092.85645111737
358.913057745648	139.311062014837	786.205368089868	1649.63733319657	176.194911778893	2482.89343828894	1061.39273709209	137.857761060371	2200.41157903273	1822.72170420755	147.004650252251	2641.54531534796	1677.82091255167	127	3738.33552152135	1536.35952779898	136	2290.02272727296	824.135657644312	125	1738.19745660552	1427.83654909981	146.653121477772	2104.93545963976	1209.48028718646	138.076457623441	2355.79811157282	1881.23641358331	161.452170172532	2698.80891037072	1383.36283191322	137.1138973788	2542.30964356208	1296.20236814947	139	1837.98721111978	903.908618689317	126.069152925397	2198.97554627868	1447.0495019665	127.728936076585	2650.56046187032	303.814343829864	126	818.449376871967	2566.4141105638	134.089586400323	4092.17192746326
358.968594208766	139.2908222811	786.142684196694	1649.77614998782	176.185966607852	2481.7317711738	1061.27449820012	137.84537917001	2199.87758279739	1822.88092177182	147.002654445794	2641.75648620715	1676.8212938144	127	3739.11149673517	1534.84543058895	136.001327222897	2290.14264811692	823.541672893949	125	1738.66809100089	1425.54705434363	146.619588618803	2104.39523414367	1208.50780085444	138.05325630232	2356.60150540037	1880.58917178377	161.432143782444	2701.84098124435	1383.15885548493	137.118459717673	2545.11530536892	1296.17308173631	139	1841.13142226436	904.619243075303	126.084656531333	2201.38001314303	1448.92879025002	127.771409776023	2656.2876538795	304.130523570709	126	819.840041350527	2567.81410938172	134.134876927986	4091.8809616035
359.034463659529	139.289495058203	786.298231677673	1650.04614764482	176.195583155327	2481.1916403093	1061.25125446662	137.837760862727	2199.9544718888	1823.34331829004	147.005977475148	2643.38649004036	1675.66529227073	127	3739.14980174596	1533.07717317252	136.005977475148	2289.51473182803	822.754428840006	125	1738.56419470943	1422.93308871199	146.570813583048	2103.20969387215	1207.17999036281	138.05325630232	2356.84828570808	1879.73169515707	161.403802221615	2704.64717308251	1382.68448122503	137.113897378801	2547.21271497325	1295.95002479981	139	1843.65512963851	905.27143059339	126.110833148395	2204.23417109195	1451.15393716003	127.804393860959	2664.03944382697	304.47055718567	126	821.72863325472	2569.05025269434	134.186018359229	4092.10708623257
359.118824340502	139.306411762587	786.704450467126	1650.44027890546	176.228839526042	2481.3214064984	1061.35729763017	137.835192651623	2200.71328089951	1824.35185966773	147.017727277756	2647.11602157524	1674.28928736421	127	3737.78046346908	1531.0806995467	136.016400054859	2287.84669192065	821.714901820422	125	1737.47024226319	1420.06807541259	146.506756605039	2101.10016679068	1205.44849073037	138.076457623441	2356.12342096701	1878.80968361927	161.363102529134	2707.02200754168	1381.94045397376	137.101082211157	2548.30243189187	1295.62012056601	139	1845.42710237731	905.741187451081	126.143132885243	2207.27799574785	1453.8670782699	127.826682702592	2674.3308235264	304.834789455705	126	824.165027334612	2569.49559684902	134.237024504179	4092.91326365633
359.22614384684	139.338477941419	787.369104531788	1650.92462758256	176.287040952922	2482.10616860031	1061.61707839739	137.837760862727	2202.1610167887	1826.1882087727	147.041506499712	2653.67301511889	1672.61635408647	127	3734.40930330898	1528.91011729445	136.035529024564	2284.99433756557	820.349053298261	125	1734.99701223399	1417.0035649302	146.429718173473	2097.79000249559	1203.25740309583	138.120934877959	2354.08618946125	1877.91432825033	161.304332628729	2708.75954354992	1380.93570868062	137.082403674188	2548.21630216791	1295.36137244932	139	1846.4954170119	905.907781704963	126.175054304917	2210.25271826744	1457.33803047216	127.837384899043	2687.75151257671	305.233697718854	126	827.198273633792	2568.41233186257	134.280698854946	4094.3003638719
359.358742430659	139.380940437944	788.27703573027	1651.45079823083	176.36892343645	2483.50513879849	1062.0440190554	137.84537917001	2204.2561958793	1829.08877823183	147.080902728005	2663.60011217271	1670.61087727998	127	3728.7538832768	1526.65808133603	136.064502673146	2281.02085451782	818.602978517518	125	1730.91431587263	1413.79497475841	146.34528944147	2093.11171272933	1200.59590861753	138.18373987712	2350.59110085235	1877.06627947222	161.223142071615	2709.65231321429	1379.71145711487	137.061156926116	2546.96208949181	1295.45622499354	139	1847.10038445718	905.692902075567	126.200863391861	2212.95737535975	1461.94144381322	127.835816807647	2704.79010450926	305.687818802098	125.998672777103	830.855742453503	2565.12817450017	134.310198431789	4096.19672683298
359.515791948481	139.429147806653	789.38984850566	1651.97832147694	176.469106139771	2485.46041482864	1062.63639197468	137.857761060371	2206.90217301836	1833.16216688943	147.13740940187	2676.98518899944	1668.32319979464	127	3721.00343744166	1524.44735573333	136.101880377306	2276.20312639576	816.478790040047	125	1725.25342063774	1410.52561595185	146.261065583996	2087.10217379388	1197.54974293385	138.261065583996	2345.79243116776	1876.22674577391	161.117416849117	2709.53337247216	1378.36467030434	137.04072345119	2544.76570092169	1296.27918567929	138.998672777103	1847.65491569083	905.084065094488	126.214979589957	2215.30014098963	1468.08659316657	127.819489676635	2725.64616767845	306.221508287483	125.995349747749	835.122681593645	2559.22122840325	134.320624139986	4098.48641527294
359.695783780959	139.479394395752	790.654282418735	1652.49453459244	176.579680489217	2487.92066462292	1063.37989722791	137.874352818591	2209.96161609654	1838.32648122981	147.208063273451	2693.29133294783	1665.91012925841	127	3711.8713480472	1522.41655277248	136.143560600305	2270.9889772903	814.055940196724	125	1718.35588770667	1407.32260401939	146.183739877119	2080.0560073516	1194.32366262807	138.346616664367	2340.1644765093	1875.32825046953	160.989355117147	2708.30995528584	1377.05560181506	137.023779221956	2542.04661198435	1298.23943911695	138.994022524852	1848.67066016234	904.147495239618	126.214979589957	2217.31611733339	1476.10705603355	127.787560528817	2750.0609885435	306.855444493307	125.988250197392	839.922029594216	2550.6575773763	134.310198431789	4101.02311618111
359.895677935267	139.527560531053	792.005903006095	1653.01578835373	176.687958495678	2490.82296341652	1064.24299060426	137.894267536593	2213.25478310704	1844.28025371057	147.285366262651	2711.31146842291	1663.6252934746	127	3702.48967920725	1520.698090169	136.183485885345	2265.90583789856	811.496177785259	125	1710.83811302597	1404.36111082624	146.119607655062	2072.51423754581	1191.23447118403	138.433041202827	2334.44868789197	1874.32157620129	160.844148122486	2706.01106329774	1375.99468302345	137.011749802608	2539.36443968041	1301.69920144984	138.982272722244	1850.66010827309	903.02057727055	126.200863391861	2219.14467331204	1486.15043282402	127.738065491931	2777.23139482717	307.599365488475	125.976220778044	845.104101674028	2539.85914386679	134.280698854946	4103.6519590829
360.110574211504	139.571611749198	793.376182857838	1653.5756227169	176.78104714129	2494.0776754251	1065.17462025913	137.916269102915	2216.57281958159	1850.52757594299	147.358540190262	2729.3205958307	1661.7789584788	127	3694.18168741849	1519.40031168185	136.21365236706	2261.45236745763	809.023211253638	125	1703.48264821318	1401.85041534631	146.069152925397	2065.1908727131	1188.6655342647	138.513856155396	2329.52746908317	1873.21348024246	160.690068767097	2702.82362096935	1375.40841126423	137.004650252251	2537.32360986918	1306.88284842754	138.959820723185	1854.02915509334	901.88169763054	126.175054304917	2220.97164957521	1498.08368116268	127.67180001474	2805.83882769415	308.443923395573	125.95927654881	850.451587324483	2527.63518560285	134.237024504179	4106.22622567614
360.334117539697	139.611874136147	794.696305093106	1654.20642123891	176.845968240129	2497.54742802828	1066.10769865671	137.938843073884	2219.69338321224	1856.46122932987	147.415842981819	2745.37545353906	1660.66701747358	127	3688.17245710324	1518.58356982973	136.226379621326	2258.00039512441	806.880878969426	125	1697.08507277426	1400.00116914843	146.030878772314	2058.84642420603	1186.98533928579	138.581515779499	2326.23833522682	1872.06863943162	160.53492361796	2699.07433191862	1375.48498680314	137.001327222897	2536.44707960152	1313.79340611948	138.922420301349	1858.97381294714	900.91109072368	126.141805662347	2222.95830526206	1511.46962848676	127.590723563449	2834.20538783766	309.360551069504	125.938843073884	855.70096688314	2515.04396861601	134.187345582126	4108.62506206374
360.557121625245	139.64882099676	795.89967064566	1654.91555985959	176.872497328205	2501.02149818325	1066.96139030716	137.95927654881	2222.38671558822	1861.47092358366	147.447336686431	2757.68067131957	1660.50235396037	127	3685.29466149511	1518.2564455976	136.215957041615	2255.71814825462	805.283314365923	125	1692.28509112736	1398.98332237947	145.998672777103	2054.13318326747	1186.46807625513	138.63055537289	2325.19612818071	1870.99971032545	160.388029688479	2695.18390334218	1376.32849380439	137	2537.06551973833	1322.17880393668	138.86836292559	1865.42101240265	900.253230303498	126.106182896144	2225.17502384095	1525.60782353353	127.49807293272	2860.54583246614	310.304226518863	125.917596325812	860.578812764558	2503.18631433418	134.139527180237	4110.75487664347
360.767016422837	139.683111802465	796.922582784466	1655.67393836186	176.855545858062	2504.20784130799	1067.65525606758	137.976220778044	2224.43004974835	1865.06986161889	147.447336686431	2764.94110031386	1661.34274861307	127	3685.78268319182	1518.36102512703	136.179450565393	2254.5442135326	804.361899694885	125	1689.42882857576	1398.87627392385	145.964470975436	2051.45583881684	1187.22563747511	138.657154897839	2326.63442972755	1870.12640771277	160.256091422685	2691.56113559921	1377.92374844418	137	2539.21519976217	1331.54586732918	138.79798867075	1873.00643462441	899.985188975739	126.074233951621	2227.57351957585	1539.63935925746	127.400046689974	2883.27157828064	311.221269425774	125.898917788843	864.845767653744	2492.98864873967	134.102663425828	4112.56545788703
360.951562866043	139.715628344461	797.706655642475	1656.4154928501	176.796428086302	2506.76053323937	1068.11859447198	137.988250197392	2225.62765829999	1866.98167268638	147.415842981819	2766.60468018858	1663.0733550378	127	3689.19415622894	1518.78860183612	136.118983212199	2254.19913536006	804.137778848017	125	1688.4983269154	1399.64179910085	145.919097271995	2050.86892047089	1189.17597742874	138.659529021471	2330.36329086373	1869.53129922528	160.143386877018	2688.52538501162	1380.12915317753	137	2542.63776849666	1341.23462030568	138.713850688827	1881.14367704092	900.109005555165	126.050023955691	2229.98586840236	1552.70400343066	127.303093540407	2901.25145364452	312.060704957971	125.8861026212	868.333621339293	2485.05219416348	134.082229950902	4114.02638775273
361.099151225246	139.743920995169	798.208863336949	1657.05915484829	176.703741718354	2508.34736136929	1068.30863109323	137.995349747749	2225.84497866184	1867.19427536949	147.357212967365	2762.95074761733	1665.42133946561	127	3694.51944724513	1519.39489673697	136.040353000102	2254.25844963217	804.518490321948	125	1689.13291638409	1401.11330893725	145.856613122982	2052.05929907764	1192.06091619349	138.638022453365	2335.80151017798	1869.22945759013	160.05325630232	2686.21773855041	1382.70621258969	137	2546.81606067224	1350.54178914853	138.620386784953	1889.12700445804	900.556869603268	126.038183470358	2232.18202956934	1564.08855294094	127.214040748598	2914.0046490998	312.782248423134	125.881540282327	870.976389479816	2479.57553785658	134.082229950902	4115.13027698307
361.204619061445	139.766847437151	798.406981655303	1657.53911893801	176.589413496006	2508.72925135734	1068.22244914543	137.998672777103	2225.03643125031	1865.94929877487	147.2807160104	2754.98603088021	1668.0164206243	127	3700.41921024896	1520.03200282237	135.953669524751	2254.24895075031	805.32117782305	125	1690.73155633142	1403.02124223479	145.774209448794	2054.41129861266	1195.50409466857	138.594932606687	2342.12516299371	1869.1539143002	159.984999825846	2684.57963950448	1385.36900792108	137	2551.09382584074	1358.84737845163	138.523173815352	1896.27124962378	901.218970542121	126.040179276815	2233.93162364176	1573.3461508912	127.13740940187	2921.72663499654	313.364727672184	125.8861026212	872.812380417708	2476.38278409848	134.102663425828	4115.88060066868
361.267609411587	139.781156113603	798.310862249438	1657.83729927534	176.467784479095	2507.85008950282	1067.90024732804	138	2223.27543026361	1863.67759917213	147.196313470842	2744.20174433225	1670.47772624234	127	3705.55528436146	1520.57859039311	135.867939762296	2253.76396855351	806.321061667106	125	1692.61251930064	1405.04360342576	145.673127237637	2057.147818329	1199.08878781381	138.53545063688	2348.45656125747	1869.16783007034	159.936650826464	2683.37742304999	1387.84209028524	137	2554.81726624347	1365.72683132698	138.42795497352	1902.04158703504	901.971656530733	126.057123506049	2235.06742325419	1580.34015980322	127.076252475754	2925.17106844939	313.804616285586	125.898917788843	873.961818311745	2475.02162932995	134.139527180237	4116.27930637584
361.295631800957	139.785552166564	797.963950193121	1657.99604801316	176.351437732615	2505.89033553049	1067.421113945	138	2220.76226219875	1860.89279541884	147.113630179914	2732.24549782546	1672.50690799159	127	3708.91161501367	1520.97364485338	135.7921199604	2252.56071869144	807.309407660813	125	1694.18724944987	1406.87796287639	145.559229858837	2059.51115133296	1202.44531216298	138.465164295418	2354.05967160207	1869.10207364092	159.904895263991	2682.27584720381	1389.91967834094	137	2557.47545960513	1371.01306319548	138.339687930007	1906.14609786631	902.705647864998	126.086263370969	2235.52903260196	1585.22049801352	127.028429474207	2925.42221810188	314.111203671344	125.917596325812	874.590977230345	2474.91298284526	134.187345582126	4116.3358320673
361.301242960926	139.780064952031	797.440826206193	1658.12098473425	176.247792117528	2503.2520572665	1066.88990955615	138	2217.79683380899	1858.08535560407	147.038852053918	2720.58275453146	1673.94707424876	127	3710.03416894693	1521.22695562889	135.73024248169	2250.62471449869	808.1362008996	125	1695.09972511187	1408.30062044155	145.440770141163	2060.93711127946	1205.31475846394	138.392602327174	2358.47687694501	1868.80514114164	159.887429844096	2680.93407827729	1391.49916557179	137	2558.79782224641	1374.80017879119	138.261846594691	1908.56669039098	903.351334913218	126.123127125378	2235.37237604249	1588.34383087896	126.989297803549	2923.6198418583	314.302222054063	125.938843073884	874.864463382888	2475.5091469752	134.237024504179	4116.0778944475
361.300461812289	139.765976209213	796.836590681236	1658.35494136298	176.159983372839	2500.48926781949	1066.41727477508	138	2214.73880808594	1855.62551309335	146.975699321345	2710.25963201907	1674.80678426495	127	3709.08245229476	1521.40884202811	135.684033978351	2248.15966652022	808.738845700221	125	1695.28373077478	1409.20649701598	145.326872762363	2061.16220773611	1207.5769697108	138.326066730127	2361.55929434548	1868.19562203581	159.88021305943	2679.09686536174	1392.59029269747	137	2558.77371934636	1377.37406631423	138.196127329702	1909.51091031298	903.879804893691	126.162239137273	2234.73321756553	1590.1491173942	126.95350422135	2920.74065715585	314.396603396223	125.95927654881	874.9115513766	2476.39710555646	134.280698854946	4115.56411240808
361.309399476382	139.745248218066	796.247335116066	1658.82809562815	176.086263370969	2498.16389944487	1066.09633120113	138	2211.9283698698	1853.74110700939	146.923573800959	2701.85868152994	1675.20775987991	127	3706.66646419355	1521.61718521848	135.650143482056	2245.51761410922	809.123933644087	125	1694.8983423236	1409.59727629521	145.225790551206	2060.22193220563	1209.22700276487	138.274490342913	2363.38790097296	1867.29002348322	159.881452368949	2676.66504038892	1393.28617276056	137	2557.61245396545	1379.12402354126	138.142588710869	1909.34295347522	904.293852067648	126.197628275886	2233.77965545803	1591.07445711193	126.916391074825	2917.51969023048	314.41178865532	125.976220778044	874.809139052498	2477.31025364065	134.310198431789	4114.88445582552
361.33942073112	139.72114982465	795.751143091181	1659.61031959195	176.021594481484	2496.70312599683	1065.98051747341	138	2209.62774121473	1852.49510188827	146.881116042035	2695.53398158962	1675.32224034046	127	3703.5927841406	1521.93005019384	135.624518280278	2243.08100233074	809.339422798234	125	1694.21661656875	1409.54983784614	145.143386877018	2058.37548882741	1210.34270871066	138.242470222805	2364.20081165908	1866.21080691002	159.887167986235	2673.72447808837	1393.73027736233	137	2555.68084202514	1380.4488243879	138.100130951944	1908.50391948204	904.621842928053	126.22419218108	2232.6751841885	1591.50290091252	126.876872874622	2914.40119534762	314.364577678782	125.988250197392	874.586125487308	2478.13151162283	134.320624139986	4114.15727936142
361.39602568776	139.694625543748	795.38751997481	1660.67883674731	175.95927654881	2496.27260937449	1066.07554298554	138	2207.95918750754	1851.81567921185	146.84537917001	2691.0729570522	1675.29997614526	127	3700.60986521772	1522.36764531004	135.601687617761	2241.1488517162	809.437785743051	125	1693.51379308898	1409.16595421691	145.082229950902	2055.99548983565	1211.0397211865	138.234217324461	2364.277124204	1865.1393241723	159.893817103856	2670.51966885497	1394.06463591146	137	2553.3983944213	1381.66719386509	138.067134401264	1907.41338334324	904.89403108909	126.239544560209	2231.53371157245	1591.71275546901	126.837760862727	2911.6083010551	314.270955158617	125.995349747749	874.239067620148	2478.82994097443	134.310198431789	4113.49317375915
361.477626388625	139.667949966466	795.152521317705	1661.91967287077	175.893469370443	2496.74080675374	1066.34071936505	138	2206.89700901955	1851.54745037431	146.81573310396	2688.06971582945	1675.22355922405	127	3698.17857694548	1522.87639719266	135.575914268036	2239.8417787723	809.452275856373	125	1692.95649396014	1408.52972682965	145.041506499712	2053.42565505392	1211.43046258507	138.249119340425	2363.869246078	1864.26300785783	159.898119622694	2667.39749719399	1394.39010215422	137	2551.16135978026	1382.97852340231	138.042050674087	1906.42555079718	905.138744810098	126.243321150786	2230.43341532596	1591.9074757741	126.803698947011	2909.24859812729	314.148628237215	125.998672777103	873.760205141858	2479.40839778336	134.280698854946	4112.97936748638
361.576957136592	139.642411068951	794.996801379831	1663.16288306643	175.819583152234	2497.69130482872	1066.70571335149	138	2206.2661500086	1851.50650786909	146.791949144403	2685.99701941378	1675.08909043647	127	3696.40900112814	1523.33210161956	135.543068944163	2239.08299314511	809.383304067576	125	1692.57332788836	1407.67635670417	145.017727277756	2050.90038305067	1211.6091118669	138.284508479038	2363.17909352486	1863.7238041888	159.898119622694	2664.73364581511	1394.75616558938	137	2549.2870147181	1384.45534670198	138.023779221956	1905.78352139945	905.370956272565	126.237024504179	2229.41892555722	1592.22159070851	126.78045807117	2907.39201481224	314.013745609065	126	873.14863329404	2479.88507325005	134.238351727076	4112.63983123829
361.683754965035	139.618745952818	794.843240114541	1664.24431063324	175.73561138665	2498.57745738174	1067.08886881835	138	2205.80464998803	1851.52965014377	146.774056355731	2684.32968874176	1674.83815146296	127	3695.12015619525	1523.57543769557	135.500459958431	2238.63499519624	809.210017651421	125	1692.28100215992	1406.59448038184	145.005977475148	2048.51644162483	1211.64299563305	138.335282380163	2362.34966838506	1863.57925891717	159.893817103855	2662.85347007576	1395.15439949038	137	2547.9750266057	1386.05394516982	138.011749802608	1905.60474093231	905.595230262025	126.223396063389	2228.52617175168	1592.73874040417	126.772205242399	2906.12690740546	313.879596089304	126	872.417434099965	2480.28164483997	134.191995834377	4112.42015921063
361.785959251402	139.597390611519	794.603222700556	1665.08037710748	175.642960755922	2498.90095414948	1067.41517929719	138	2205.228872278	1851.52953043888	146.762975495821	2682.66414944358	1674.39848158427	127	3693.94947044157	1523.45702430886	135.448938185042	2238.17335328331	808.909774415128	125	1691.9273887128	1405.24922558151	145.002654445794	2046.24576146899	1211.57959742786	138.395751412045	2361.48276481792	1863.81226883982	159.887167986235	2662.00304478097	1395.54392516535	137	2547.3189046393	1387.6604921896	138.004650252251	1905.89574526085	905.804062726152	126.205530799567	2227.79929557057	1593.51184842946	126.779130848273	2905.61168537294	313.750788260973	126	871.588153926887	2480.62570423578	134.151276982845	4112.20374035404
361.874414869791	139.580826378148	794.198776650445	1665.71841878327	175.547829827468	2498.36455923046	1067.63573307864	138	2204.30719342779	1851.52882791339	146.759226430094	2680.8091756758	1673.72729067184	127.001327222897	3692.5165156867	1522.88022483177	135.392428382691	2237.38884184779	808.470682946789	125	1691.35565341639	1403.60992497774	145.005977475148	2043.99498842846	1211.4520541172	138.460687987651	2360.65406853279	1864.35280680381	159.881452368949	2662.33437328614	1395.87671299428	137	2547.32517345611	1389.13507902259	138.001327222897	1906.58103219931	905.987028243723	126.186018359229	2227.29688697924	1594.58166426398	126.79904869476	2906.06791845116	313.623280248153	126	870.67645492217	2480.96340088667	134.126442647784	4111.82598292965
361.939438999636	139.571609049424	793.577316011879	1666.33892601967	175.458497418919	2496.9830404948	1067.72721847956	138	2202.9111157989	1851.65634112442	146.762975495821	2678.83854023537	1672.84993753352	127.004650252251	3690.55558542991	1521.83775799546	135.338605409517	2236.06794480704	807.908692318586	125	1690.45152791981	1401.69052320227	145.017727277756	2041.67003622	1211.28737793115	138.524239180388	2359.92126746364	1865.12192782707	159.88021305943	2663.8990156199	1396.1224312337	137	2547.94209488045	1390.35519600173	138	1907.53523066065	906.133818082951	126.166370632599	2227.09316680229	1595.97609594664	126.826011060119	2907.74086384623	313.483046289914	126	869.682413702923	2481.34433031303	134.124280624988	4111.13076672713
361.973493674442	139.573105050491	792.72111607078	1667.22170320397	175.385756768591	2495.06593947097	1067.69750856796	138	2201.0481041096	1852.122383381	146.774056355731	2677.06385467445	1671.8645350944	127.011749802608	3688.00196996183	1520.41781918596	135.294931058749	2234.14453812141	807.265627701672	125	1689.17243491191	1399.564661027	145.041506499712	2039.23636262412	1211.11249547044	138.582465172456	2359.3397544692	1866.05981641532	159.8861026212	2666.66236309386	1396.28560836063	137	2549.09620452398	1391.24991987835	138	1908.62828614606	906.242918754757	126.14688919188	2227.26447434383	1597.70838474554	126.853093652666	2910.83078597037	313.308506586064	126	868.585397461144	2481.79743671273	134.148037129269	4110.01242223748
361.969369420026	139.587130276296	791.64757505778	1668.64455145575	175.338186983823	2493.07392357504	1067.57534843218	138	2198.84182541468	1853.14452995875	146.791949144403	2675.90607957417	1670.91824347745	127.023779221956	3684.97735285	1518.77987999608	135.268248310131	2231.69099852552	806.598266489641	125	1687.54140560557	1397.35677854647	145.080902728005	2036.72055992536	1210.95011451492	138.631093719005	2358.95366057491	1867.13055704118	159.897590565946	2670.49314759997	1396.39850361469	137	2550.7092683947	1391.80671901729	137.998672777103	1909.74945525796	906.328744717317	126.126974404306	2227.88085899367	1599.77846572683	126.874340400738	2915.428155809	313.079486481103	126	867.352529222288	2482.3271563086	134.198144125521	4108.46440392057
361.923288384784	139.614781798721	790.406172071071	1670.77491368242	175.320721563929	2491.42170174888	1067.40326948651	138	2196.49413131814	1854.86924429739	146.81573310396	2675.73920096249	1670.16777478394	127.04072345119	3681.73118320961	1517.11713995119	135.261863750145	2228.87655042349	805.963126864043	125	1685.62764878565	1395.21040479099	145.13740940187	2034.19330469448	1210.82052861682	138.667691237091	2358.77387111588	1868.32142995673	159.912946073561	2675.1388842591	1396.51682699974	137.001327222897	2552.68149533456	1392.07251512292	137.995349747749	1910.80662278234	906.420579825212	126.105732463407	2228.98451532638	1602.15513945029	126.885042597189	2921.44651419061	312.782370415844	126	865.957101107437	2482.89017483352	134.2690388656	4106.58813617839
361.834306350899	139.651358277818	789.069459679003	1673.57813728634	175.330646224454	2490.28815477471	1067.22406891273	138	2194.22629411145	1857.29790778631	146.842724724216	2676.73122994213	1669.7253985538	127.061156926116	3678.50110042664	1515.59767340729	135.273870451817	2225.88117325999	805.397497397167	125	1683.49900432492	1393.24312376901	145.208063273451	2031.70723726251	1210.73335074108	138.688744243974	2358.76661892403	1869.6075528486	159.927093271276	2680.2111585872	1396.68777412242	137.004650252251	2554.88063912696	1392.12186444558	137.988250197392	1911.71785026632	906.559626884115	126.083730897085	2230.57200889441	1604.76614028402	126.883189376457	2928.58686750189	312.416357582886	126	864.398907502669	2483.40463852305	134.353716214724	4104.58497491662
361.706650807238	139.690761039793	787.718564912962	1676.77640130149	175.358272991376	2489.49866966717	1067.06569523039	138	2192.20987227536	1860.24454008075	146.86916109174	2678.73183714361	1669.61096846622	127.082403674188	3675.39077465635	1514.31455579811	135.298443288156	2222.81829823099	804.904143622628	125	1681.19063814181	1391.50166311675	145.285366262651	2029.24418530308	1210.68041060983	138.692233489667	2358.83984253596	1870.92280104977	159.935497326854	2685.18132725621	1396.92790319204	137.011749802608	2557.11576585837	1392.02476651727	137.976220778044	1912.38767734012	906.784949945245	126.061156926116	2232.56690463022	1607.48394482592	126.869440708479	2936.32357611529	311.996921451857	126	862.717431311135	2483.74848655723	134.440420369924	4102.70702223593
361.550000112259	139.723861584042	786.430113971884	1679.88279487011	175.387513838844	2488.5203680028	1066.93888365598	138	2190.5224396742	1863.35332747258	146.889446468345	2681.25407585136	1669.7354147914	127.101082211157	3672.29120804689	1513.26203190051	135.325812738352	2219.68499697359	804.449917249355	125	1678.68507922666	1389.94273439514	145.358540190262	2026.68124165356	1210.63463068921	138.676908565815	2358.83841198151	1872.13422628077	159.935497326854	2689.39294532178	1397.20345731488	137.023779221956	2559.1141106478	1391.81734680947	137.95927654881	1912.67984869108	907.118395499697	126.04072345119	2234.80169773459	1610.11881645547	126.845923344385	2943.92654908277	311.552409321795	126	860.995427947026	2483.77884326735	134.517723359125	4101.20813044087
361.37828599215	139.742026171259	785.261610840173	1682.28487438299	175.39944292696	2486.57339718325	1066.83061258898	138	2189.11953307245	1866.14923751744	146.897336574172	2683.54368969755	1669.91365783967	127.113897378801	3668.85137090717	1512.34556803	135.346516333135	2216.34608675864	803.974531128841	125	1675.90958899763	1388.44362281293	145.415842981819	2023.78959800939	1210.54722430602	138.643999928512	2358.56007342898	1873.03273629977	159.925766048379	2692.11667867829	1397.42272152115	137.04072345119	2560.52612626087	1391.47514466595	137.938843073884	1912.40117716363	907.548856504586	126.023779221956	2236.99852709501	1612.4231656146	126.814383163387	2950.50575957464	311.119093053995	126	859.339077792445	2483.34954391089	134.573519780219	4100.27747814294
361.206997908415	139.740585547961	784.241181925085	1683.37998460301	175.376856538137	2482.82708666612	1066.70785928035	138	2187.83670898028	1868.13698644661	146.88746917762	2684.72278637086	1669.89628252356	127.118459717673	3664.54813018295	1511.40520202792	135.350904727525	2212.57239204313	803.402448895375	125	1672.75765769717	1386.83212651999	145.447336686431	2020.27693967344	1210.35116781808	138.597934785894	2357.76868882941	1873.35421556987	159.906968598413	2692.63081258573	1397.44735990482	137.061156926116	2560.93898093883	1390.91171950482	137.917596325812	1911.29884253958	908.027503596136	126.011749802608	2238.7854658258	1614.11464799893	126.778244768746	2955.11275309406	310.732377381301	126	857.851050431086	2482.33047875842	134.599328867164	4100.00635941588
361.049678270737	139.719457712886	783.368205643492	1682.70800760874	175.308600061664	2476.63916827213	1066.52339959728	138	2186.43224625776	1868.89908722359	146.856613122982	2683.99520456503	1669.436343094	127.113897378801	3658.81893481746	1510.27845535813	135.334766530527	2208.12317135946	802.668090996816	125	1669.12999613212	1384.94650656158	145.446009463534	2015.86936874088	1209.97374457899	138.545201574119	2356.23994753788	1872.83224377368	159.881190511088	2690.34949528895	1397.12446522548	137.083730897085	2559.95260272375	1390.00083472774	137.898917788843	1909.10581475599	908.467190757499	126.004650252251	2239.73442501404	1614.9110199422	126.73895713368	2956.8592227495	310.41841272833	126	856.60032267614	2480.62590933572	134.590897286735	4100.3756053
360.914809070895	139.681906551478	782.61441376891	1680.06713335943	175.191379653509	2467.75616569665	1066.22618567175	138	2184.64219656245	1868.18962084076	146.803183097375	2680.82609922339	1668.34395730864	127.101082211157	3651.21706964045	1508.84797825128	135.297383264146	2202.83191612814	801.730865082339	125	1664.96791176781	1382.68640328374	145.411192729568	2010.39066153614	1209.35215724642	138.496304925593	2353.78792291691	1871.26650016465	159.849246373738	2684.93407429496	1396.32825528644	137.105732463407	2557.24211303269	1388.62100071619	137.8861026212	1905.59458608641	908.764652705932	126.001327222897	2239.424050146	1614.58793935852	126.697254193005	2955.05774366347	310.19017010967	126	855.600048597309	2478.20928566026	134.549217063737	4101.26372147209
360.804237293126	139.636280638683	781.937367667929	1675.57087894778	175.031667427899	2456.42664027016	1065.77646554408	138	2182.25275553043	1865.99009234642	146.729633911503	2675.08151689033	1666.54544278247	127.082403674188	3641.5759187307	1507.0928206762	135.244642811461	2196.69842038465	800.592926445078	125	1660.29436276043	1380.05960069846	145.346790387654	2003.84509145828	1208.45641405481	138.459188720155	2350.30950793723	1868.60137794165	159.811060134033	2676.40385864498	1395.00781533011	137.125647181409	2552.64856433653	1386.71034326854	137.881540282327	1900.65714126576	908.824091337961	126.001327222897	2237.53025902791	1613.03254840998	126.65471055853	2949.36283843444	310.045293627324	126	854.804239789363	2475.13792047899	134.480345654965	4102.48987750716
360.71489559521	139.59223882737	781.29625897727	1669.62887482268	174.844596121488	2443.3930220384	1065.15694509908	138	2179.16430676805	1862.51451690196	146.641633533025	2667.07961267169	1664.09924334069	127.061156926116	3630.09980396811	1505.09875573757	135.184284051494	2189.93211104775	799.299227995399	125	1655.22876878412	1377.19171254823	145.261587040695	1996.45264393581	1207.30159117679	138.44093621956	2345.81610064583	1864.96432520186	159.766494966138	2665.19495263363	1393.20819546806	137.142238939629	2546.2460277474	1384.30569745502	137.8861026212	1894.37855860271	908.583400722636	126.004650252251	2233.90355204367	1610.27714523056	126.611962049525	2939.86248763484	309.970106516606	126	854.119551718982	2471.5513967754	134.394069214826	4103.83980146912
360.638998093778	139.557723350431	780.662096116955	1662.86332717507	174.648833414614	2429.74304272203	1064.38064118856	138	2175.42588057981	1858.16582962716	146.547829827468	2657.53015923199	1661.19792831175	127.04072345119	3617.4092611446	1503.0555358369	135.125659599262	2182.96352722564	797.934828339313	125	1649.99981184715	1374.31455149587	145.167339822261	1988.65276132022	1205.95785325871	138.44289553021	2340.46986538306	1860.67610845362	159.715177911724	2652.15613576282	1391.07978597031	137.15462082999	2538.38413725102	1381.56448054198	137.898917788843	1887.08677952613	908.041293344998	126.011749802608	2228.6417347868	1606.53119567208	126.571873607059	2927.13251754261	309.945282747406	126	853.442616605535	2467.68650281535	134.30176631751	4105.12804991396
360.570381835808	139.538783314741	780.03142965816	1655.99322680831	174.46560938713	2416.696845922	1063.5026704267	138	2171.24714228421	1853.4712898383	146.458497418919	2647.40908273294	1658.12394717471	127.023779221956	3604.46104891552	1501.20504011271	135.076252475754	2176.37920811403	796.606979660701	125	1644.91823669666	1371.71092124485	145.076252475754	1981.03631275742	1204.5399923167	138.462906097249	2334.57502786922	1856.19542045578	159.657857964712	2638.43345140664	1388.8464761842	137.162239137273	2529.65456007522	1378.74395759154	137.917596325812	1879.32888181832	907.255958404803	126.023779221956	2222.0975832924	1602.14034898107	126.537311468292	2912.1733266088	309.952125247076	126	852.694815421304	2463.81561537157	134.214040748598	4106.21202649178
360.506704853662	139.537059376402	779.430981086586	1649.69049194034	174.312670754359	2405.36478892778	1062.60785071746	138	2166.97316364573	1848.9711748885	146.385756768591	2637.77431705032	1655.19882906057	127.011749802608	3592.38771169829	1499.78908480615	135.040179276815	2170.81170583174	795.427779160513	125	1640.33682576851	1369.65054619579	144.998499053816	1974.23746750301	1203.18602105673	138.495527389667	2328.55456970792	1852.02995873742	159.596876661767	2625.30086689921	1386.75767959003	137.164807348377	2520.81431937307	1376.15193196684	137.938843073884	1871.80550672327	906.340278514734	126.04072345119	2214.84917462441	1597.54547681242	126.510620901478	2896.29017418221	309.978331049463	126	851.85403456814	2460.22575676525	134.138736624767	4107.02140128125
360.452725091459	139.549820826751	778.910461297612	1644.4764993951	174.202620654485	2396.53808412784	1061.8065023087	138	2163.01702365389	1845.13405144426	146.33951420672	2629.56178820063	1652.71634113329	127.005977475148	3582.30146608568	1498.98659100946	135.019054500653	2166.81146755792	794.492386170369	125	1636.60021517462	1368.32347062062	144.940424288555	1968.81180512228	1202.02927877178	138.533579239609	2322.90430778266	1848.62878988699	159.536657925694	2613.95881024576	1385.03504203555	137.162239137273	2512.67444759074	1374.08182833462	137.95927654881	1865.25148220035	905.432995725359	126.061156926116	2207.60923888383	1593.20620331713	126.494977702696	2880.91521313232	310.019054500653	126	850.966893164087	2457.17416837201	134.080902728005	4107.55825836577
360.41883399174	139.570979661445	778.540007869351	1640.66364461747	174.141463728369	2390.63603101357	1061.21031771609	138	2159.80723749422	1842.28498410765	146.326699039076	2623.47116694894	1650.9063756796	127.007304698044	3575.08882384266	1498.88257725873	135.010627727398	2164.72599495506	793.86816074364	125	1633.98461819859	1367.80484965413	144.903829898955	1965.12580728935	1201.17277358897	138.571617311419	2318.09772241481	1846.29373182787	159.48282081525	2605.30921466566	1383.82869646827	137.15462082999	2505.9456957582	1372.7512375151	137.976220778044	1860.29238229145	904.66871042404	126.082403674188	2201.09589668116	1589.52082844407	126.491773586339	2867.36414540368	310.075130400544	126	850.135926314275	2454.84841348952	134.041506499712	4107.87080304215
360.4201808734	139.592506026257	778.390257004371	1638.36674278661	174.129713925761	2387.72674112313	1060.91636354459	138	2157.70688252438	1840.58276664421	146.349700725106	2619.88624092753	1649.90011421314	127.016400054859	3571.27861085442	1499.45322614566	135.014404248402	2164.64314183285	793.586758288803	125	1632.6627532459	1368.04506197448	144.887517757474	1963.30173975051	1200.66807310619	138.602752982797	2314.50571158739	1845.13289163265	159.440358318725	2599.81216260371	1383.19790829068	137.142238939629	2501.1214750174	1372.26717510593	137.988250197392	1857.33049841114	904.148235584016	126.101082211157	2195.91670115292	1586.76422575716	126.500437461952	2856.66098438546	310.150486427375	126	849.492992560004	2453.34028221457	134.017727277756	4108.05561874686
360.471413138991	139.606073508842	778.516299139603	1637.52711416503	174.162441377671	2387.58176490318	1060.98658084534	138	2156.94965594478	1840.01715560131	146.405756966235	2618.84472271045	1649.72733585902	127.035529024564	3570.96097145349	1500.58762869902	135.028429474207	2166.38068708873	793.643434264059	125	1632.66952187065	1368.89575468851	144.887429844096	1963.20464110356	1200.51157962682	138.623626638529	2312.33134899076	1845.05880665949	159.413921881628	2597.44322038908	1383.11247616274	137.125647181409	2498.41442795051	1372.61793233141	137.995349747749	1856.49059555722	903.921701562536	126.113897378801	2192.45941692956	1585.06121734847	126.520719710071	2849.38643421047	310.248242550266	126	849.156947774346	2452.65418758969	134.005977475148	4108.20975080067
360.580377589888	139.604777285564	778.947486993602	1637.95744628163	174.231768026354	2389.80494908402	1061.43345860065	138	2157.60999085929	1840.43242397795	146.487471067501	2620.09693523838	1650.33433049815	127.064502673146	3573.82122476767	1502.13028452337	135.052473253798	2169.55726612589	794.006131256201	125	1633.90439369981	1370.15824875545	144.898917788843	1964.49805477535	1200.65497411179	138.63161247593	2311.56806354869	1845.8482248307	159.406977324218	2597.73822366791	1383.48417526878	137.105732463407	2497.73654881631	1373.69966361411	137.998672777103	1857.61292181505	903.986707110106	126.118459717673	2190.85503647464	1584.38655387696	126.551087661119	2845.64510422746	310.36892343645	126	849.20308877819	2452.71342062485	134.001327222897	4108.42221281063
360.748158555518	139.585837249873	779.678945002965	1639.39460112749	174.32819998526	2393.91396038959	1062.21820227155	138	2159.59648465858	1841.57893204167	146.58433630369	2623.18486331372	1651.60113389981	127.101880377306	3579.24137854077	1503.91742876412	135.086263370969	2173.69530630444	794.620649193444	125	1636.15350020701	1371.62817260889	144.917596325812	1966.73557217652	1201.02238066598	138.624800200883	2312.03425632451	1847.21331470122	159.421119714759	2599.97047447598	1384.19529927349	137.083730897085	2498.77819791952	1375.35461429499	138	1860.34209364969	904.295891658248	126.113897378801	2190.98541668299	1584.59318111765	126.590196544528	2845.11701472418	310.507904542427	126	849.643696058593	2453.38002446803	134	4108.74381689662
360.965097456126	139.549566834976	780.670389130103	1641.5373448113	174.440770141163	2399.39453910578	1063.2542966569	138	2162.66715891072	1843.15746702003	146.684877040245	2627.53045276992	1653.3695223057	127.143560600305	3586.42577834682	1505.81067415154	135.129104600526	2178.32372613043	795.421706984704	125	1639.1230024703	1373.13414038287	144.938843073884	1969.45267733465	1201.53321997814	138.603986730094	2313.43016288186	1848.8867538031	159.454628177363	2603.3510732751	1385.13371018218	137.061156926116	2501.10975099239	1377.4171499814	138	1864.22924575562	904.782993881419	126.101082211157	2192.56022844409	1585.47958019834	126.636786839812	2847.20802822327	310.660688033678	126	850.43349450113	2454.51854442138	134	4109.19606933816
361.213590315861	139.501395962074	781.856957205128	1644.08612952932	174.559229858837	2405.75562495295	1064.42810954881	138	2166.48708623476	1844.87746904871	146.777532478147	2632.5505320067	1655.46543392492	127.183485885345	3594.55807963034	1507.71403168813	135.178639192132	2183.06745312354	796.340530899239	125	1642.49061138123	1374.55624351692	144.95927654881	1972.25585344802	1202.12290229671	138.57204502648	2315.40846994638	1850.67956803644	159.504848574017	2607.20886666048	1386.21542901178	137.04072345119	2504.27931342725	1379.74745356128	138	1868.8343589745	905.37685803053	126.082403674188	2195.20035580116	1586.82790370204	126.688334459362	2851.2037468706	310.821693423653	126	851.487981538733	2456.00560406798	134	4109.75787985108
361.472725619369	139.448302968804	783.162741294759	1646.78223362516	174.673127237637	2412.57049259836	1065.620744765	138	2170.69732162422	1846.50610348364	146.853290093628	2637.75523070614	1657.72608551217	127.214979589957	3602.91334385863	1509.57827334951	135.23315730045	2187.68433582695	797.314975832894	125	1645.95023253641	1375.83314324767	144.977548000941	1974.87202006412	1202.75072698387	138.533151524547	2317.66488112951	1852.49458015544	159.566958797173	2611.1198492474	1387.38533350247	137.023779221956	2507.91225963959	1382.24279164314	138	1873.81135264552	906.022666794352	126.061156926116	2198.5316170335	1588.45352823279	126.74201310209	2856.4258358766	310.986736833355	126	852.710983802497	2457.76633174663	134	4110.37885415276
361.723063417893	139.399089918165	784.51274868354	1649.43090008425	174.775536671691	2419.49961945327	1066.73304945743	138	2174.97635983191	1847.90048143713	146.90602024649	2642.80542925341	1660.010088672	127.232357096474	3610.95924281642	1511.38892305381	135.290022077123	2192.07828123701	798.291538278877	125	1649.26094885831	1376.95004754418	144.992900449643	1977.17282188001	1203.40072730257	138.492966419473	2319.97135887659	1854.31689065709	159.636005829117	2614.91073278569	1388.61310782721	137.011749802608	2511.7303017199	1384.8357614902	138	1878.92428594742	906.684994274554	126.04072345119	2202.24291271829	1590.22061699324	126.79518899798	2862.32282409708	311.153988742237	126	854.015957779852	2459.76243827974	134	4110.9859075624
361.949626594119	139.360496663195	785.847292403213	1651.91680276815	174.86259059813	2426.2998246627	1067.70469290353	138	2179.09459034056	1849.02170661518	146.934714278332	2647.53911000995	1662.21240575716	127.232357096474	3618.3950945095	1513.15273319552	135.347402412663	2196.26851822068	799.232276827986	125	1652.27159054269	1377.9280474764	145.007099550357	1979.16378816088	1204.07368107323	138.458409505541	2322.20716909391	1856.17049381425	159.707440711392	2618.61491363486	1389.87680058756	137.004650252251	2515.56729869129	1387.47639508935	138	1884.04195766069	907.346711763643	126.023779221956	2206.10896708861	1592.03820285291	126.845117312148	2868.49062126926	311.321960652251	126	855.336961211682	2461.97391244505	134	4111.50314912891
362.144932718946	139.335727250678	787.127717727761	1654.19042882342	174.935497326854	2432.81698326804	1068.51760405458	138	2182.93194469213	1849.91194370941	146.941549271054	2651.94341984832	1664.27033998245	127.214979589957	3625.13306201883	1514.88648580668	135.404609028846	2200.33722689507	800.116320010889	125	1654.92876958838	1378.81110502978	145.022451999059	1980.94530886731	1204.78065602674	138.435795979852	2324.34866841563	1858.08271807273	159.77633483784	2622.35957856038	1391.15268027143	137.001327222897	2519.33624783793	1390.11443688036	138	1889.09130247915	907.9989045536	126.011749802608	2209.97972435979	1593.84343198342	126.889166851605	2874.64606694932	311.488328851114	126	856.631528688293	2464.37523106182	134	4111.85955276598
362.308783295514	139.325545539466	788.334676261514	1656.25169041583	175	2438.9645969182	1069.19096709911	138	2186.46924706149	1850.66317014577	146.932865598736	2656.09253543815	1666.15351976631	127.183485885345	3631.23598503268	1516.59628202755	135.462016889236	2204.36625192064	800.935643205146	125	1657.25636796013	1379.64546945503	145.04072345119	1982.65716558197	1205.52655439552	138.430080362566	2326.44045398121	1860.0368119755	159.83871212194	2626.25816109582	1392.39506329206	137	2522.98853460767	1392.67473261185	138	1894.00998793733	908.633367291109	126.004650252251	2213.7477274143	1595.58394755828	126.925766048379	2880.57073664081	311.649007137901	126	857.86951229699	2466.91618600036	134	4111.99407300288
362.446915827002	139.326183189441	789.465754283792	1658.12419906416	175.064502673146	2444.7080523313	1069.76607312508	138	2189.75547376188	1851.37104001287	146.916269102915	2660.08397145177	1667.86751312955	127.143560600305	3636.84271481131	1518.28021452542	135.520605604248	2208.39865963211	801.696430164677	125	1659.33032785721	1380.47990270243	145.061156926116	1984.4338297118	1206.30973539841	138.444805461116	2328.56048904309	1861.97631220682	159.892142147546	2630.33566958274	1393.54553571775	137	2526.48602192768	1395.06248106613	138	1898.71415498574	909.231868650643	126.001327222897	2217.32286084576	1597.19626420242	126.954626296559	2886.0695657467	311.79789519515	126	859.026991229341	2469.50749114679	134	4111.878998747
362.566603463712	139.330370270051	790.524240181573	1659.82761040731	175.136082178973	2450.0432249706	1070.28544017402	138	2192.86090711573	1852.09407794291	146.898917788843	2663.97431865671	1669.43424910006	127.101880377306	3642.08334263893	1519.92254117416	135.581274773058	2212.41000420077	802.412153278149	125	1661.23736561878	1381.35479267538	145.082403674188	1986.36417719308	1207.11931804531	138.479622195081	2330.7826114796	1863.80503457958	159.934170103957	2634.49845152131	1394.53612502487	137.001327222897	2529.77498422041	1397.17114612774	138	1903.08684453368	909.765116129368	126	2220.60481909157	1598.60681235073	126.974893555147	2890.94162938957	311.927503055887	126	860.078660176511	2472.0388617123	134	4111.51135662249
362.675741859093	139.331160825521	791.513747098954	1661.36456610483	175.219813076059	2454.98479342355	1070.77849776165	138	2195.84047907457	1852.83608593134	146.8861026212	2667.75149932375	1670.88202491023	127.064502673146	3647.04334727902	1521.50147165053	135.644166006909	2216.331589381	803.097563659095	125	1663.05241428735	1382.30019933855	145.101082211157	1988.48683103207	1207.94183839746	138.529299438446	2333.14101237409	1865.4283705257	159.964470975436	2638.54557065011	1395.31218589473	137.004650252251	2532.77583741874	1398.91052524843	138	1906.98774478106	910.197818427432	126	2223.48622570527	1599.73837086756	126.988250197392	2894.99212706332	312.030345767223	126	860.993440712425	2474.39536511172	134	4110.93314341128
