Light	Light	Light	Light	Light	Light	Light	Light	Light	Light	Light	Light	Light	Light	Light	Light	Light	Light	Light	Light	Light	Light	Light	Light	Light	Light	Light	Light	Light	Light	Light	Light	Light	Light	Light	Light	Light	Light	Light	Light	Light	Light	Light	Light	Light	Light	Light	Light
Optode1-730nm	Optode1-Ambient	Optode1-850nm	Optode2-730nm	Optode2-Ambient	Optode2-850nm	Optode3-730nm	Optode3-Ambient	Optode3-850nm	Optode4-730nm	Optode4-Ambient	Optode4-850nm	Optode5-730nm	Optode5-Ambient	Optode5-850nm	Optode6-730nm	Optode6-Ambient	Optode6-850nm	Optode7-730nm	Optode7-Ambient	Optode7-850nm	Optode8-730nm	Optode8-Ambient	Optode8-850nm	Optode9-730nm	Optode9-Ambient	Optode9-850nm	Optode10-730nm	Optode10-Ambient	Optode10-850nm	Optode11-730nm	Optode11-Ambient	Optode11-850nm	Optode12-730nm	Optode12-Ambient	Optode12-850nm	Optode13-730nm	Optode13-Ambient	Optode13-850nm	Optode14-730nm	Optode14-Ambient	Optode14-850nm	Optode15-730nm	Optode15-Ambient	Optode15-850nm	Optode16-730nm	Optode16-Ambient	Optode16-850nm
353.642271182999	139.053800476695	790.894171940674	1719.28133107579	173.964265827749	2708.15887765251	1021.99623990372	138	2152.19826789486	1740.1457900592	146.974893555147	2552.32972171461	1609.30231040837	127.004650252251	3589.63929840905	1499.07542013432	136	2297.43908098158	821.779530702323	125.004650252251	1768.81232580313	1246.03974463867	146.853784953902	1856.19623728616	1159.2621887968	138.339947750041	2362.38349608794	1848.52555602995	161.456913900383	2774.96671723497	1374.87931800651	137	2647.17389610078	1234.09689097269	139.004650252251	1930.70802588114	878.527178027421	126.016400054859	2188.3510539258	1266.92980531027	127.95927654881	2539.32907526875	298.857946145314	126	832.770924969415	2658.39990346638	134.136007709921	4099.27874363664
353.612230269498	139.071784653514	790.935372492936	1716.93508152925	173.969195696739	2700.41002382614	1022.33313372549	138	2152.97130362727	1741.54003299963	146.988250197392	2552.97672208145	1610.2706469064	127.001327222897	3592.91752717874	1499.5762980424	136	2295.96540151442	821.798386037508	125.001327222897	1768.28635539894	1247.29215529682	146.893469370443	1854.53910102838	1158.86318296528	138.327938127399	2357.73718368706	1846.47596167788	161.469447017551	2762.43341229328	1373.59270251153	137	2641.5524534086	1230.26615706113	139.001327222897	1918.63385051299	878.317458863632	126.005977475148	2183.30958602536	1263.73903503078	127.938843073884	2521.45681141075	298.690271007495	126	830.391989864947	2655.84913377694	134.106009172858	4099.44607972884
353.553618836809	139.101458174841	791.052898976313	1714.25390202011	173.955170470934	2693.66040028183	1022.48778372305	138	2153.70925351291	1742.47072953151	146.996676970646	2553.48968579647	1611.14428337349	127	3596.30439517778	1500.09252173547	136	2294.79238759408	821.771242572738	125	1767.55365989572	1248.6485365955	146.923747524246	1853.13733650794	1158.48256934465	138.321424343963	2352.84383725167	1844.9587515088	161.482450364162	2751.29117768154	1372.45884778838	137	2636.21078815695	1226.69401977497	139	1907.52057912497	878.001534767111	126.001327222897	2178.06502056851	1260.93610698674	127.917596325812	2504.58221610215	298.565833814674	126	828.119993406811	2653.44802424725	134.101358920607	4099.53605184611
353.458399994977	139.141261487972	791.217282134023	1711.25605953274	173.922420301349	2687.78651166178	1022.41967488115	138	2154.33881501146	1742.87637156904	147.003323029354	2553.77660506816	1611.87494158288	127	3599.70528255035	1500.55893756894	136	2293.87365260421	821.70011566557	125	1766.66015773648	1250.04772654114	146.94069175348	1852.00458578297	1158.09455498132	138.313783319004	2347.9176634964	1843.91194191606	161.493958592849	2741.87260541425	1371.47949845369	137	2631.4325448634	1223.41499965703	139	1897.74147698234	877.62891684552	126	2173.16071875305	1258.61148310085	127.898917788843	2489.53593795906	298.487986917137	126	826.130649987851	2651.18488171887	134.118280432165	4099.57924865083
353.330204191655	139.191477077452	791.413417531591	1708.05045688666	173.874340400738	2682.66423062207	1022.13713404435	138	2154.84821999023	1742.76969458013	147.013077025505	2553.80579034546	1612.45229773477	127	3603.01005788628	1500.9180530002	136	2293.08498126878	821.597830107381	125	1765.64816776324	1251.41623858663	146.942876493951	1851.07154188696	1157.66434443886	138.300818720634	2343.16869062392	1843.21288651566	161.502471241655	2734.34097623855	1370.63316861587	137	2627.44590576565	1220.44186353113	139	1889.55571887731	877.25263060817	126	2169.11622144598	1256.82456870131	127.886102621199	2477.04644697957	298.456231354663	126	824.591890857522	2649.07664870706	134.149538075452	4099.596061171
353.182962390819	139.248769569186	791.644441915569	1704.82814283103	173.815715948506	2678.24519796996	1021.69424973876	138	2155.29477282272	1742.23206827908	147.028429474207	2553.6119035745	1612.89739621239	127	3606.10612717047	1501.12904564143	136	2292.25387853024	821.484751426005	125	1764.5637572913	1252.68907755533	146.932865598736	1850.21998646036	1157.15745056767	138.279058022811	2338.76487948883	1842.6983072885	161.506227548291	2728.63879703072	1369.88242094795	137	2624.36892596443	1217.76238175979	139	1883.04193441048	876.916087177056	126	2166.32026519522	1255.58407175486	127.881540282327	2467.5942860483	298.46560938713	126	823.62636123474	2647.14458125268	134.184813108242	4099.59293069504
353.036327190714	139.309931232903	791.924898946573	1701.81793607489	173.754029965642	2674.5902010084	1021.17459680993	138	2155.78072191039	1741.38615673631	147.052473253798	2553.27927981644	1613.2570955736	127	3608.91963030867	1501.17839717434	136	2291.22217324129	821.38664841034	125	1763.47246380079	1253.82889868963	146.916269102915	1849.34643136275	1156.54749865128	138.250508614521	2334.80439789289	1842.19367051478	161.505172483078	2724.49499408926	1369.18007798904	137	2622.17787036042	1215.34383331064	139	1878.07575319052	876.639111646703	126	2164.95205718017	1254.83793673191	127.884775398303	2461.31081807657	298.50527281431	126	823.281577911145	2645.38364234494	134.214979589957	4099.56381163389
352.909702557647	139.369504244574	792.276606413767	1699.24160760049	173.696639260707	2671.8871393994	1020.6711858628	138	2156.43866883344	1740.37344801724	147.084936148072	2552.9411236393	1613.59014657821	127	3611.4159400311	1501.08937373021	136	2289.89657265232	821.330725840725	125	1762.44877066556	1254.84026680763	146.898917788843	1848.4010926431	1155.8265679942	138.220342132806	2331.30090678052	1841.56309948209	161.499895153833	2721.48103373806	1368.49025092672	137	2620.71561487546	1213.1527223436	139	1874.35974312186	876.418933029561	126	2164.95414207048	1254.48725111151	127.894267536593	2457.95876558938	298.560557081734	126	823.51568741167	2643.75788922167	134.232357096474	4099.48773933273
352.818379149816	139.420510389524	792.722161849161	1697.262460047	173.648833414614	2670.41002995712	1020.267343217	138	2157.40785693953	1739.32768070077	147.123127125378	2552.76626463636	1613.96337187811	127	3613.67067654658	1500.92853687807	136	2288.32796587306	821.342883939042	125	1761.59589900613	1255.77452912928	146.887429844096	1847.44699673883	1155.0177047831	138.194911778893	2328.21273675763	1840.75060159708	161.49202098852	2719.12552806159	1367.80478000206	137	2619.75119947848	1211.17534865518	139	1871.50776756746	876.235068071093	126	2166.06195279396	1254.40726948817	127.905846523204	2456.99464136844	298.613274816742	126	824.202480133997	2642.19314348398	134.232357096474	4099.32893697784
352.769224118198	139.455753159863	793.279024024142	1695.94979125008	173.612239025014	2670.43887741645	1020.0196069716	138	2158.81530117449	1738.35749138379	147.162239137273	2552.94666433232	1614.4401580984	127	3615.88410268819	1500.79431509735	136	2286.73454462842	821.446882336389	125	1761.03811478738	1256.71761033777	146.887517757474	1846.66915093689	1154.17964908493	138.180764581178	2325.48603247308	1839.80606466721	161.483231374857	2717.03288499872	1367.15495559038	137	2619.0582023903	1209.43204408787	139	1869.1433347074	876.064488329613	126	2167.89314611295	1254.48287288749	127.913736629031	2457.71024579687	298.647222626635	126	825.158494700349	2640.60818067288	134.214979589957	4099.06128091284
352.7610674648	139.469381600652	793.952224185625	1695.26228518669	173.584330741468	2672.1497168221	1019.95304095434	138	2160.75029150559	1737.5397387084	147.196301052989	2553.66469555028	1615.07567581015	127	3618.39272654109	1500.80302697552	136	2285.49154024357	821.660475214081	125	1760.92128177818	1257.77903251003	146.902502676058	1846.36841170829	1153.40874421935	138.183762594796	2323.1012134145	1838.88234479859	161.478170563	2714.97496425567	1366.6118491275	137	2618.48196866507	1207.97640030957	139	1866.98441825271	875.889105323626	126	2170.03615305938	1254.63120157216	127.91390284537	2459.37982149218	298.649951541481	126	826.176790334699	2638.92542951395	134.184813108242	4098.66586921952
352.786441108539	139.45962796364	794.73415613298	1695.05995463007	173.559229858837	2675.52704241237	1020.06386570636	138	2163.25486665288	1736.92250256763	147.21954192883	2555.06848649201	1615.91789010459	127	3621.61727525838	1501.06876232817	136	2285.05985259525	822.002465118868	125	1761.39633264112	1259.07479096851	146.934446813408	1846.90601896518	1152.82616193659	138.207091384015	2321.10794821084	1838.19406861307	161.482035066954	2712.92191073038	1366.27072225411	137	2617.98140048154	1206.87754302231	139.001327222897	1864.88496480048	875.705439392339	126.001327222897	2172.14885726778	1254.81586210391	127.90331404932	2461.40400188368	298.612566237273	126	827.06895067393	2637.09675178751	134.149538075452	4098.15570475772
352.836097672055	139.429007920702	795.602393289941	1695.13819074859	173.529566637332	2680.31843902541	1020.32728113208	138	2166.31291844365	1736.52950010525	147.229121980498	2557.23884351483	1616.99463833188	127	3625.97069158554	1501.67463934947	136	2285.87193754843	822.486480805079	125	1762.59219867376	1260.70696545655	146.983426221855	1848.6267345671	1152.55677635244	138.249905088721	2319.63463453932	1837.95688016935	161.500975808067	2711.02179665843	1366.2224072184	137.001327222897	2617.63166508867	1206.19077697449	139.005977475148	1862.83551958726	875.521633259437	126.004650252251	2174.00507304143	1255.03991548583	127.882067301247	2463.37298894259	298.532723533278	126	827.6911692146	2635.10981867734	134.119607655062	4097.55781997761
352.901368182995	139.384152836244	796.526409741386	1695.28201872881	173.488843186143	2686.07022816385	1020.71248448177	138	2169.85248439418	1736.37386362916	147.225519403977	2560.17591736896	1618.31618849673	127	3631.74078944879	1502.65789643665	136	2288.21673690581	823.123233703824	125	1764.58334549213	1262.74898851577	147.046700926337	1851.77290289334	1152.70835115869	138.309504292837	2318.8482829305	1838.32569829807	161.540616738767	2709.5146129595	1366.52791716046	137.004650252251	2617.56991877411	1205.9286492702	139.016400054859	1860.91278381941	875.351892587248	126.011749802608	2175.51513322018	1255.32779441593	127.853544085403	2465.0897629087	298.410139561189	126	827.966500788263	2632.98195978307	134.106009172858	4096.92073196941
352.978331049463	139.336364900653	797.469719778659	1695.31244412123	173.434897482471	2692.21228464297	1021.18844913183	138	2173.74985023836	1736.45683392398	147.214028330745	2563.78706097813	1619.86748603474	127	3639.00836242162	1503.99813991249	136	2292.15865715973	823.916323387737	125	1767.36979648782	1265.23226957096	147.12056442687	1856.42288717133	1153.35031594722	138.380940437944	2318.89985927119	1839.35987001435	161.605497241853	2708.63708595654	1367.20409114317	137.011749802608	2617.93271597554	1206.05467065638	139.036856247461	1859.22218138521	875.209360641566	126.023779221956	2176.70696043157	1255.70269487178	127.823618472186	2466.52472174853	298.24883392425	126	827.887876611961	2630.75770362299	134.116431752569	4096.29912649546
353.065829896043	139.297221958712	798.395555705329	1695.1247228295	173.36916791766	2698.17229184894	1021.73099445868	138	2177.83617487146	1736.76489903811	147.203745636985	2567.89022557152	1621.60424864238	127	3647.58038886674	1505.61636863004	136.001327222897	2297.49790333574	824.856044925083	125	1770.85494692334	1268.1315961574	147.201213163101	1862.44635573699	1154.49963937505	138.458121455235	2319.86211730297	1841.01037041326	161.696994594168	2708.5421381288	1368.2182585495	137.023779221956	2618.80084104192	1206.48809069385	139.069152925397	1857.85073763415	875.100814746232	126.04072345119	2177.68974916961	1256.16959565629	127.799136608139	2467.75437529916	298.054119426958	126	827.504816482427	2628.48808502653	134.155136679626	4095.74216132682
353.166383050452	139.276936582107	799.276242388726	1694.69940028412	173.297116065259	2703.49090153669	1022.32557586782	138	2181.92667357502	1737.27462286817	147.204029853383	2572.2495239309	1623.46891077227	127	3657.05137113156	1507.3977238956	136.004650252251	2303.82822964051	825.922304668481	125	1774.86672040154	1271.36961446984	147.285459738251	1869.53554841635	1156.1216948921	138.535901069618	2321.67814172509	1843.1545285074	161.812908409649	2709.24734772119	1369.50331815424	137.04072345119	2620.15990595299	1207.12896961959	139.113630179914	1856.82910811493	875.023972568895	126.061156926116	2178.61271006828	1256.71242149322	127.785020410043	2468.90348186964	297.8323104065	126	826.90165386211	2626.21796186363	134.218691000849	4095.29611708619
353.282297225072	139.2804258278	800.089865221267	1694.07747048959	173.227192243156	2707.85993490154	1022.95877706537	138	2185.82921168024	1737.93909967367	147.222345549943	2576.59252213292	1625.38844966118	127	3666.86695564048	1509.20424460881	136.011749802608	2310.61935571125	827.081024048599	125	1779.17130771636	1274.81411795002	147.369766498344	1877.24838605117	1158.1298927741	138.608636982345	2324.1446310235	1845.62269270576	161.947259547316	2710.63997653399	1370.97093128935	137.061156926116	2621.89715486059	1207.88087654128	139.168667045158	1856.13467999417	874.972464018634	126.082403674188	2179.61789228544	1257.302359531	127.785020410043	2470.08827050129	297.590723563449	126	826.167350662985	2623.97505499484	134.299770511053	4094.97407062634
353.413926688802	139.306439287437	800.822853850756	1693.32208362138	173.166383050452	2711.12458524202	1023.61679580167	138	2189.36959557927	1738.69321233145	147.260536527249	2580.65406167124	1627.29232219513	127	3676.42377088782	1510.90363764679	136.023779221956	2317.3174474567	828.289500836837	125	1783.49953462341	1278.29657500895	147.452170172532	1885.07587800636	1160.3993891866	138.671366737458	2326.93525504092	1848.24208648433	162.089349564003	2712.51182861671	1372.52790344666	137.082403674188	2623.83525497452	1208.66979920374	139.228859588786	1855.7045575142	874.942735155894	126.101082211157	2180.82242759341	1257.91541828618	127.799136608139	2471.40864344996	297.337562540961	126	825.373560055563	2621.76527784044	134.388296887365	4094.76206490252
353.559579630076	139.347943887264	801.467297218432	1692.47558730049	173.118280432165	2713.22131515288	1024.28043347269	138	2192.40475633755	1739.45367108689	147.313795736858	2584.19706441705	1629.12701096846	127.001327222897	3685.18464122637	1512.39416104822	136.04072345119	2323.44792420171	829.501917556715	125	1787.58334739106	1281.63278638862	147.528775326815	1892.5189797945	1162.77735643019	138.721121262697	2329.63758321474	1850.85619765064	162.226915533706	2714.59466535679	1374.08437922553	137.101082211157	2625.75749932994	1209.44856967868	139.287886318682	1855.44627626249	874.937010917473	126.113897378801	2182.29841420176	1258.54323577236	127.824945695083	2472.93638754229	297.081338309153	126	824.555099534143	2619.56527115131	134.474293710764	4094.61560907542
353.713306514452	139.394972197431	802.013517334918	1691.52500822915	173.081859499813	2714.10045661996	1024.92528975346	138	2194.83027510171	1740.12589114291	147.371617215767	2587.02398184376	1630.85306065955	127.004650252251	3692.74381765858	1513.60445997634	136.061156926116	2328.6640683024	830.670807870189	125	1791.17780782508	1284.63886650404	147.594499329405	1899.14262048397	1165.09880621468	138.755530911825	2331.82700385043	1853.33362941454	162.346160999675	2716.61254799128	1375.55713221507	137.1138973788	2627.45642305602	1210.18864373023	139.338539992618	1855.25688745858	874.970116431151	126.118459717673	2184.07277285016	1259.19974254527	127.856867114757	2474.71532586364	296.829865194678	126	823.71057303857	2617.33623320947	134.550000112259	4094.47436733028
353.867839431064	139.436893288928	802.450858553274	1690.38652266492	173.051675087649	2713.66825149789	1025.51993470575	138	2196.59043931881	1740.60484764134	147.420493234069	2588.98831159082	1632.45035145818	127.011749802608	3698.85589888024	1514.49826016993	136.082403674188	2332.75743922346	831.752801852427	125	1794.07848894434	1287.15480455603	147.644339730196	1904.60653039938	1167.20325268379	138.774557182206	2333.13782207488	1855.56244557211	162.434259660926	2718.31735985471	1376.86651546852	137.118459717673	2628.76703376147	1210.8652657811	139.37416275882	1855.02948226315	875.061070392983	126.113897378801	2186.13034183096	1259.907326241	127.889166851605	2476.76323727694	296.589263531429	126	822.807244351367	2615.01466527496	134.611970311521	4094.29567594433
354.013766426856	139.468142650272	802.762718516995	1688.92528179971	173.019743902004	2711.76282663582	1026.0339800612	138	2197.66892335917	1740.79097778979	147.448663909328	2589.9806921881	1633.91197836302	127.023779221956	3703.4328956622	1515.06226725747	136.101082211157	2335.63606585635	832.708918020352	125	1796.13518355649	1289.05988164097	147.672344189115	1908.68570117245	1168.95695571301	138.780637356678	2333.3142741142	1857.4555260848	162.482611719221	2719.49580067329	1377.94444627608	137.113897378801	2629.56862245574	1211.44869074258	139.390033894874	1854.64553271327	875.228949367837	126.101082211157	2188.41206071756	1260.68394241417	127.915343468667	2479.05296517618	296.362139929066	126	821.794839541181	2612.52259825915	134.660312069993	4094.07414410635
354.14330660853	139.484995907215	802.931237660297	1686.98792959884	172.977198229701	2708.19780779122	1026.4396220114	138	2198.09123282469	1740.59740078517	147.447336686431	2589.92796049592	1635.22879009414	127.04072345119	3706.50872988892	1515.2882742681	136.113897378801	2337.28369810035	833.50158430737	125	1797.25930019798	1290.27611392059	147.67407849685	1911.26652615167	1170.26290441837	138.778244768746	2332.24889516273	1858.93572570978	162.487689686532	2719.99195846512	1378.7302257684	137.101082211157	2629.7944780587	1211.89114911403	139.384349277207	1853.97938714088	875.483882407074	126.082403674188	2190.8195207419	1261.52774503044	127.929519851706	2481.51219106225	296.148361038329	126	820.619574807829	2609.77426515695	134.698228120269	4093.86199104843
354.249466786999	139.490875099589	802.935791565603	1684.44767387639	172.917770049098	2702.81482351815	1026.71997377413	138	2197.90188809746	1739.96750818539	147.415842981819	2588.78233791895	1636.39052353626	127.061156926116	3708.18029823164	1515.16798823563	136.118459717673	2337.70710452473	834.099876188343	125	1797.41689181523	1290.77865385183	147.647673059372	1912.33013942714	1171.07061483353	138.772702940389	2329.98002804194	1859.94041367988	162.451893463082	2719.70598528737	1379.17644286479	137.082403674188	2629.41074492506	1212.12799443377	139.358540190262	1852.9009340137	875.819853499574	126.061156926116	2193.21239451167	1262.40655784023	127.92819262881	2484.00867400889	295.943493326134	126	819.238583438345	2606.68642140046	134.72937151979	4093.75171258755
354.328783493158	139.488850041775	802.759218664693	1681.25069008561	172.840562839363	2695.5769749518	1026.87035681136	138	2197.15909405156	1738.89295929691	147.358540190262	2586.5390632981	1637.37778676729	127.082403674188	3708.58073278252	1514.68835862931	136.113897378801	2336.91902197649	834.478689199414	125	1796.63562863047	1290.58913758266	147.59448217395	1911.94279193132	1171.37826317618	138.768620355184	2326.66212696267	1860.42957050091	162.382863586593	2718.5933307079	1379.25998952508	137.061156926116	2628.40099479069	1212.09281410791	139.316859967263	1851.28869958885	876.212392675554	126.04072345119	2195.41667482758	1263.2560023534	127.90936599352	2486.3566854066	295.741588861798	126	817.631770661734	2603.20244725951	134.756753318267	4093.844297644
354.378887480124	139.483947697634	802.388510065662	1677.43261144114	172.748693219329	2686.61673379287	1026.89884242019	138	2195.92069463262	1737.41196224023	147.285366262651	2583.24708278938	1638.17748871776	127.101082211157	3707.8448622417	1513.84271279815	136.101082211157	2334.92991629458	834.626029900128	125	1794.99523768917	1289.77816884068	147.5191384954	1910.23269168552	1171.22013579344	138.767293132287	2322.51830064385	1860.37851599515	162.291418206852	2716.662303237	1378.9763378023	137.04072345119	2626.74856548761	1211.72242217881	139.264038842111	1849.04918700821	876.625955275378	126.023779221956	2197.25221243581	1263.99607918883	127.871439573849	2488.34440872521	295.538105082674	125.998672777103	815.813751491219	2599.32647499092	134.779994194108	4094.21935731789
354.397474975228	139.480332585795	801.814925189594	1673.11922381649	172.650929230352	2676.23868638396	1026.8203520741	138	2194.23256782247	1735.61014219295	147.208063273451	2579.01734914598	1638.78000619652	127.113897378801	3706.08336816702	1512.63540836174	136.082403674188	2331.74946595267	834.543329187707	125	1792.61180502195	1288.44910043492	147.428932425177	1907.36511537232	1170.66021305395	138.769379911035	2317.7846718555	1859.79797068231	162.188729156058	2713.96183378659	1378.35052966442	137.023779221956	2624.43114737791	1210.98165844936	139.20593307723	1846.13748303082	877.02114932413	126.011749802608	2198.55700520338	1264.54766418624	127.816687837942	2489.76516575533	295.333117436397	125.995349747749	813.83822594759	2595.14197953906	134.794927140118	4094.8920178564
354.381314060554	139.479742129164	801.041002250361	1668.49592396678	172.55905613555	2664.90064567648	1026.65157549129	138	2192.14727886547	1733.60005571583	147.13740940187	2574.05404306327	1639.20035666035	127.118459717673	3703.4059447789	1511.10211348431	136.061156926116	2327.42329432364	834.253240103637	125	1789.63415705642	1286.73735295034	147.333710454859	1903.53377521873	1169.77421388005	138.772472441285	2312.67839980065	1858.72524681423	162.084936148072	2710.58372193653	1377.42886252532	137.011749802608	2621.43593360212	1209.86741436452	139.146455914597	1842.57800077426	877.367374837612	126.004650252251	2199.22145734105	1264.85575226022	127.747365996432	2490.46050096005	295.131886514417	125.988250197392	811.794241638317	2590.81939187139	134.79464292372	4095.79774001732
354.325203413117	139.482803659796	800.082822441361	1663.76874314698	172.485622387905	2653.1247805005	1026.40725007516	138	2189.7380343172	1731.50125303986	147.080902728005	2568.64625865651	1639.48027152866	127.113897378801	3699.94288225917	1509.31178381386	136.04072345119	2322.05897790433	833.798568230305	125	1786.23557274186	1284.79377907727	147.243141865278	1898.95344872365	1168.64613806268	138.771930966684	2307.39437756253	1857.2348140454	161.984216777324	2706.67409494724	1376.28095105866	137.004650252251	2617.79656370725	1208.41840516391	139.088381149336	1838.4783478704	877.648016844441	126.001327222897	2199.22456633327	1264.90634940618	127.667499533729	2490.37757038003	294.945074540806	125.976220778044	809.798245245595	2586.5931693914	134.77167697491	4096.82044822115
354.224643017798	139.489643390119	798.976390819026	1659.12570862928	172.441285990799	2641.40852707233	1026.10050466468	138	2187.11727702475	1729.42342169102	147.041506499712	2563.14800516602	1639.68711646026	127.101082211157	3695.85768870637	1507.37069017426	136.023779221956	2315.8443866353	833.239402240522	125	1782.59909064318	1282.77974278062	147.16463362509	1893.85754661253	1167.36340002455	138.766039726227	2302.11047829822	1855.42889514652	161.889949900127	2702.43068399668	1374.9896594682	137.001327222897	2613.61201227798	1206.70407071003	139.034837723328	1834.0201185396	877.863553594107	126	2198.63843460652	1264.73291240025	127.583009080793	2489.58573861292	294.786173909653	125.95927654881	807.976592983489	2582.71359117839	134.721736194996	4097.80630935136
354.07986930042	139.500330597038	797.77525413398	1654.71727925337	172.43112490981	2630.13311554414	1025.75383911138	138	2184.43849987147	1727.4630022704	147.017727277756	2557.9298501543	1639.90927924668	127.082403674188	3691.36168324172	1505.41147541273	136.011749802608	2309.04958549627	832.650788159234	125	1778.91509833797	1280.85410684372	147.102663425828	1888.49537808496	1166.01678158076	138.751777108498	2297.00220217099	1853.43102826167	161.801687663788	2698.10234641254	1373.64575738346	137	2609.06397843235	1204.81866604421	138.988867029575	1829.4425477177	878.030876872429	126	2197.6421410905	1264.41252739157	127.500198321767	2488.30983046402	294.666386969083	125.938843073884	806.448846938227	2579.3962550667	134.64469776343	4098.635889798
353.898646641614	139.514742234924	796.546558910764	1650.63903923609	172.453859584522	2619.49409575752	1025.39646555374	138	2181.87468745918	1725.69111158376	147.005977475148	2553.30856119047	1640.23790198822	127.061156926116	3686.71133523931	1503.57219543793	136.004650252251	2302.00581606179	832.111401526228	125	1775.37192809	1279.1599396844	147.058450728946	1883.12849299208	1164.69573078755	138.729895769364	2292.26184673227	1851.37557245236	161.720090021836	2693.98530089312	1372.33593784345	137	2604.4217120231	1202.86547596367	138.954452573273	1825.01994623261	878.178683872436	126	2196.49194646575	1264.05263749127	127.425500868239	2486.89052155873	294.594169813281	125.917596325812	805.30718442116	2576.77877256044	134.546152833331	4099.25482179169
353.696720318453	139.53214002538	795.359147547263	1646.94056207794	172.500622562059	2609.48302678226	1025.07209678263	138	2179.58303933192	1724.16274258488	147.001327222897	2549.4845088048	1640.74815967151	127.04072345119	3682.16869308537	1501.9696569484	136.001327222897	2295.05879229913	831.690343349619	125	1772.13564287945	1277.80243393572	147.029756697104	1878.00860953607	1163.48493324457	138.702878372519	2288.07573638423	1849.39625741588	161.646908366081	2690.37814500936	1371.13603272344	137	2599.99402001201	1200.94383464866	138.934446813408	1821.01284095821	878.339412469125	126	2195.47595024398	1263.77157178815	127.364519565294	2485.7262133458	294.570390591325	125.898917788843	804.598144565548	2574.89259827601	134.436119888913	4099.70531222313
353.497355035059	139.552147463934	794.265376889783	1643.62454053792	172.55790263594	2599.90211457068	1024.8262725348	138	2177.65294432312	1722.90870472111	147	2546.48282452353	1641.48202393844	127.023779221956	3677.97573164987	1500.6750344971	136	2288.52357920926	831.434642742207	125	1769.33749178497	1276.83633847442	147.013077025505	1873.3584829224	1162.45899048297	138.674192068822	2284.59882520685	1847.62331212558	161.58618688317	2687.53383783082	1370.10632478169	137	2596.07864355028	1199.1437769549	138.93147632464	1817.62889696529	878.544340497939	126	2194.84998288418	1263.67523322281	127.321678335737	2485.17082461887	294.590134493329	125.8861026212	804.316183371235	2573.67702880663	134.326872762363	4100.10064000112
353.325747779864	139.572708406958	793.295859522206	1640.66696403538	172.608624564491	2590.44999768088	1024.70577269048	138	2176.08918850012	1721.94279078585	146.998672777103	2544.16137857286	1642.43631948397	127.011749802608	3674.33773419866	1499.70040194006	135.998672777103	2282.6579470151	831.359179143235	125	1767.06581845562	1276.24730918766	147.004650252251	1869.34709231784	1161.67053200934	138.646703218394	2281.91443897831	1846.16909816715	161.542106344095	2685.60540285129	1369.29327110965	137	2592.90360486216	1197.54869394878	138.94402443134	1814.99958089571	878.819214302587	126	2194.78673032967	1263.84246851585	127.298007707008	2485.44613399137	294.644114255532	125.881540282327	804.400111105172	2573.00675193371	134.230440803457	4100.59526947084
353.205281955911	139.59089918662	792.45770779816	1638.03054498075	172.636800046923	2580.84309988471	1024.74677641955	138	2174.81862281487	1721.26377883227	146.994022524852	2542.26194361658	1643.57593769858	127.004650252251	3671.40696806799	1499.01309453512	135.994022524852	2277.64357166611	831.446187063302	125	1765.35697913524	1275.96147431629	147.001327222897	1866.07199621991	1161.14277158685	138.623732531983	2280.00122613388	1845.11521234152	161.518349839815	2684.60041464162	1368.72638675176	137	2590.579692249	1196.22918821268	138.968506295388	1813.15462215739	879.183543057509	126	2195.32481650173	1264.31414542199	127.290820243273	2486.56224965114	294.721938435393	125.8861026212	804.741065511824	2572.74595898326	134.155136679626	4101.30421882488
353.153354776373	139.602752982797	791.741602434658	1635.69194940323	172.632149794673	2570.93411874672	1024.97540530172	138	2173.72365486011	1720.86702033768	146.983599945141	2540.49030892363	1644.8452506422	127.001327222897	3669.297260695	1498.55674634248	135.983599945141	2273.59801189203	831.652663445425	125	1764.20150899707	1275.86071526359	147	1863.55297288355	1160.86680516233	138.605930785174	2278.71090586589	1844.50203479448	161.51581262833	2684.34716630451	1368.42538363291	137	2589.06594019946	1195.25309666471	139	1812.02441273424	879.654043263386	126	2196.37718269566	1265.08707470956	127.295641449463	2488.298222703	294.81696870235	125.898917788843	805.210195767318	2572.8110957898	134.107336395755	4102.2629308331
353.178326831462	139.604344763329	791.131865685043	1633.6458054082	172.592224509632	2560.80026939482	1025.40062372969	138	2172.68685531734	1720.73326741315	146.964470975436	2538.6004674304	1646.19204804904	127	3668.08232715606	1498.28233690123	135.963143752539	2270.58162814604	831.923250852728	125	1763.5491460796	1275.81061633522	147	1861.72529690706	1160.80373631274	138.591501049749	2277.78696271064	1844.31077834146	161.531142289782	2684.50820394027	1368.39814394397	137	2588.18273943178	1194.67799785211	139.031493704612	1811.45908298921	880.247360900118	126	2197.76559722378	1266.10642484644	127.305618403611	2490.23688052717	294.927801850745	125.917596325812	805.687400971004	2573.20635212788	134.088207426049	4103.40684035253
353.27887313024	139.593810531478	790.623046718401	1631.92424304403	172.523700834272	2550.78803821774	1026.01598620478	138	2171.64554164765	1720.82959194129	146.935497326854	2536.46380491553	1647.58100162046	127	3667.75817567279	1498.17138766329	135.930847074603	2268.5863507354	832.204527436938	125	1763.30466031081	1275.68852491647	147	1860.43727078926	1160.88777472523	138.579411241873	2276.88592149207	1844.44923767691	161.558164493801	2684.60210593089	1368.63322344204	137	2587.61790663868	1194.53655675987	139.057302791557	1811.23627363804	880.976602166055	126	2199.26078986586	1267.26797754157	127.315110541901	2491.83004080332	295.060561000364	125.938843073884	806.08343917901	2574.02780758725	134.095284258731	4104.56630745768
353.441646527343	139.572830378868	790.219234129196	1630.58728878316	172.440770141163	2541.44647969548	1026.79464276174	138	2170.59387338326	1721.09173075632	146.898119622694	2534.06483427931	1648.99103260561	127	3668.2000189232	1498.23117667622	135.885042597189	2267.50768290221	832.453925949374	125	1763.32437620381	1275.40629331225	147	1859.45805440081	1161.03665933292	138.568024162209	2275.64015055736	1844.75255303935	161.589270910281	2684.07378539022	1369.09089203697	137	2586.97632742177	1194.81378681135	139.073173927611	1811.08239408816	881.851558955148	126	2200.64319704586	1268.42530413915	127.318620467443	2492.50251365227	295.22561682792	125.95927654881	806.360102507389	2575.44308753092	134.1239101739	4105.52980151791
353.645307088666	139.545175381674	789.935546099081	1629.71003844016	172.362401786927	2533.4109942406	1027.68621174127	138	2169.57808981538	1721.41727996587	146.856439399695	2531.47532427875	1650.40311228507	127	3669.13164275752	1498.47755023908	135.826682702592	2267.11797018179	832.644239227393	125	1763.42339840962	1274.92089301461	146.998672777103	1858.50285367294	1161.16674338219	138.554927339998	2273.72246475933	1845.00285340038	161.615286099965	2682.38267979804	1369.6979947733	137	2585.83629105435	1195.43012856282	139.075975766304	1810.69225816638	882.867950521429	126	2201.73133163555	1269.40320305662	127.31513122175	2491.75495291062	295.43368010137	125.976220778044	806.528801282047	2577.61723547415	134.168239330096	4106.10278410222
353.863917821027	139.519327291472	789.783735587092	1629.37854958613	172.306693279211	2527.22627666869	1028.62732090204	138	2168.64379245438	1721.67959878351	146.816514114655	2528.76936526081	1651.78774912591	127	3670.1229073083	1498.90654993641	135.759390608606	2267.05498741439	832.764276901381	125	1763.3876709655	1274.23925599558	146.995349747749	1857.27009479781	1161.20610789176	138.540551321868	2270.91189251573	1844.96508091372	161.630669478713	2679.0948119646	1370.34797142065	137	2583.81076920035	1196.23495708512	139.06600361933	1809.75483775501	883.997726809269	126	2202.39186711834	1270.02098522557	127.30456599028	2489.24539377071	295.69007271544	125.988250197392	806.635984641211	2580.63545959423	134.220428008357	4106.15605906755
354.073031607924	139.500076349857	789.763291827507	1629.66926248622	172.286773754036	2523.20802383053	1029.54613055121	138	2167.80031525854	1721.7451201658	146.783693187146	2525.96347093406	1653.09212345097	127	3670.65859085643	1499.46811685293	135.687007236465	2266.84996284666	832.815816258936	125	1763.01497950932	1273.40933558044	146.986922974495	1855.50201241112	1161.10820130994	138.524908123086	2267.12732167683	1844.42685866002	161.631618038151	2673.95115877765	1370.91106993714	137	2580.60227372258	1197.01681504998	139.044756871257	1807.97410766066	885.190778432475	126	2202.54188190396	1270.1275926777	127.28938916475	2484.84993388853	295.992106231836	125.995349747749	806.740409722687	2584.45501269256	134.273770120586	4105.6768157534
354.252531017404	139.491916172065	789.847139635707	1630.62601324064	172.306693279211	2521.32406436011	1030.37146471774	138	2166.96992937514	1721.49803888531	146.761665428379	2522.96047769573	1654.24129244807	127	3670.19904237357	1500.05660785168	135.614759081045	2265.96821321837	832.810992283399	125	1762.13698877622	1272.51214974767	146.971570525793	1853.01735771759	1160.85543824337	138.508062235149	2262.43818550377	1843.23743270018	161.617309361699	2666.90936117717	1371.24980618217	137	2576.04437756535	1197.53045626488	139.015617006337	1805.10277099882	886.376435391869	126	2202.12903619945	1269.62696534746	127.274399508565	2478.66312846953	296.32819998526	125.998672777103	806.889478775956	2588.87884207182	134.322489708999	4104.75844066042
354.392138228915	139.493414418474	789.981485518765	1632.24916859675	172.362401786927	2521.21388364091	1031.04653027132	137.998672777103	2165.99235494652	1720.87443625872	146.749915625771	2519.57649219203	1655.14851147953	127	3668.32671420243	1500.52041706756	135.546953037308	2263.91114154154	832.767702916899	125	1760.67277370742	1271.64463928547	146.946199523305	1849.76772286221	1160.46593765469	138.490610541954	2257.04651878775	1841.35040369773	161.590365530214	2658.15373244308	1371.25192928071	137	2570.13351350305	1197.55037353989	138.983055770766	1800.98060676245	887.480389706121	126	2201.13643560564	1268.50554412923	127.262478682444	2470.98380013517	296.679104712785	126	807.10628241817	2593.59872751707	134.361435504554	4103.5873768996
354.48946182957	139.500721816293	790.09404525951	1634.47547691468	172.44209736406	2522.26758755994	1031.53079919902	137.995349747749	2164.65900558196	1719.87144073637	146.743513910331	2515.59998229501	1655.73709003945	127	3664.81772940412	1500.69293371711	135.486055931226	2260.30145935757	832.708132767675	125	1758.63610243193	1270.90620695284	146.910413599677	1845.83215757655	1159.98119206801	138.470441624663	2251.24378098433	1838.82319638426	161.552845298851	2648.06398637073	1370.84655235818	137	2563.03186149743	1196.90795504157	138.949265653595	1795.57266098416	888.439252917886	126	2199.58879102133	1266.83903970178	127.255869119543	2462.26022300853	297.024293823023	126	807.385904971549	2598.25603773497	134.387667499386	4102.39541955094
354.54788984084	139.508431561348	790.108601357793	1637.17894065477	172.52967830942	2523.77610072284	1031.80864683167	137.988250197392	2162.77073838335	1718.55376860811	146.73561138665	2510.87610632859	1655.96067097771	127	3659.73744914184	1500.43307377655	135.432338560735	2254.98364169356	832.653303087946	125	1756.15084701006	1270.38037928805	146.865123072014	1841.42060707035	1159.45979281343	138.446371652627	2245.35997445091	1835.82206106816	161.507528578743	2637.16430903904	1370.03008609662	137	2555.05297544192	1195.54043165302	138.917596325812	1788.99618637497	889.215890846995	126	2197.56732500624	1264.78556729663	127.255609299509	2453.03374644364	297.345456309125	126	807.704514756963	2602.52547308412	134.399696918734	4101.40021943883
354.575803636982	139.512215323261	789.972752474728	1640.19091595553	172.609951787388	2525.12000734624	1031.89296736729	137.976220778044	2160.22466274219	1717.04576891713	146.719029997825	2505.41456848214	1655.82325483384	127	3653.45119242363	1499.66933109345	135.38417555392	2248.08514966181	832.623463659794	125	1753.43328378108	1270.12680399482	146.812654417874	1836.83707439702	1158.96214544888	138.416643185795	2239.71729553693	1832.5857598877	161.457366636985	2626.06195568969	1368.86614013567	137	2546.63169699991	1193.50639088629	138.887167986235	1781.53545670374	889.81541226625	126	2195.23179032903	1262.56730981698	127.259287928362	2443.88458942639	297.630822571776	126	808.034221720251	2606.19631200301	134.397508703494	4100.76141587044
354.583532575319	139.510229820166	789.67339781112	1643.32998893783	172.672329071488	2525.89267071953	1031.82514666611	137.95927654881	2157.06662188007	1715.51338009103	146.688729126346	2499.4302845373	1655.38685029131	127	3646.59602394607	1498.42536725581	135.338889763857	2240.0297833207	832.635775567227	125	1750.76605339131	1270.17290397097	146.758325243571	1832.44303694259	1158.54105951476	138.38082980689	2234.60140536306	1829.39295088088	161.404609028846	2615.38795734946	1367.48011647417	137	2538.28154139038	1190.98258935374	138.857673146993	1773.62548653833	890.277126419795	126	2192.82128973763	1260.42983428516	127.263435454253	2435.38231110765	297.876263549387	126	808.358985620265	2609.1918163287	134.382319412218	4100.55175383209
354.58257580351	139.503933173559	789.246708563077	1646.43697256476	172.713052522677	2525.98543324198	1031.67206104971	137.938843073884	2153.51228701751	1714.13705100189	146.645480811952	2493.34061809359	1654.76176445603	127	3639.97945566527	1496.82732787285	135.293863793829	2231.49035082375	832.702027665735	125	1748.45071495059	1270.51661392428	146.707551342446	1828.60539997495	1158.22801013057	138.340302862305	2230.23226477919	1826.50319709304	161.35337988781	2605.72159515007	1366.02760860767	137	2530.52285388721	1188.2234678948	138.829067028529	1765.79503085338	890.66945038943	126	2190.63040222954	1258.60349391192	127.263347540875	2428.02693653595	298.084326822837	126	808.681530707933	2611.57142570174	134.356173794774	4100.73684657167
354.583807246942	139.494739603544	788.772028071382	1649.39712682196	172.734284163753	2525.57987466303	1031.51387134262	137.917596325812	2149.92156195286	1713.0804024379	146.594180982566	2487.69730254834	1654.09043298934	127	3634.42276710731	1495.08064557624	135.247564318199	2223.26779256769	832.828119767285	125	1746.75286328181	1271.13069154277	146.664695123358	1825.64138362322	1158.03518547671	138.298448850378	2226.74857055943	1824.12295161781	161.307749354879	2597.52561688564	1364.6685923101	137	2523.81265408856	1185.5147507093	138.801166473127	1758.58082421952	891.070819413096	126	2188.97731900841	1257.26446822062	127.255703041147	2422.21486671982	298.261661509748	126	809.025016917596	2613.48691690698	134.321510219514	4101.21417833263
354.59555704955	139.483792704686	788.353920197212	1652.14143176041	172.744841133228	2525.06696546946	1031.42450511668	137.898917788843	2146.72403607476	1712.45628913011	146.543977741366	2483.07023082738	1653.51882563626	127	3630.61457956214	1493.42944958054	135.201487972667	2216.14852453497	833.013366152809	125	1745.86105458487	1271.97644949816	146.634002156573	1823.78244167885	1157.95247979128	138.26025955176	2224.20434107121	1822.37039964201	161.274663800162	2591.09091854746	1363.53177747225	137	2518.47392167201	1183.10870173053	138.774463440568	1752.42987368891	891.550827387458	126	2188.13065695521	1256.50981965055	127.24008603481	2418.17409170751	298.415738165363	126	809.420585638937	2615.11909803642	134.282136708897	4101.82724264072
354.622755080325	139.47138462188	788.095569634596	1654.63971808971	172.754565878021	2524.93123107555	1031.45841680592	137.8861026212	2144.33011915128	1712.30819264292	146.504635164335	2479.92770836073	1653.16886076769	127	3628.9504232595	1492.10359458147	135.158205717205	2210.73854373686	833.248168081213	125	1745.84073421698	1273.00850297191	146.616894839486	1823.13219679185	1157.95163791455	138.23111244593	2222.56334661057	1821.26151667544	161.260869143033	2586.49929855816	1362.68999227792	137	2514.64230837681	1181.1739509927	138.750706936288	1747.60832513436	892.151347159046	126	2188.25018476473	1256.34843418055	127.21726344672	2415.93616945138	298.551925160792	126	809.891457771535	2616.61762266907	134.241042668676	4102.42069248212
354.66576252622	139.456039414088	788.070679206466	1656.87409302485	172.773415230987	2525.60074765503	1031.63121363356	137.881540282327	2143.02510113007	1712.59494990796	146.485528912305	2478.51157669202	1653.12063505746	127	3629.47043890171	1491.2728232175	135.122582951003	2207.34946849759	833.517454486936	125	1746.63160645806	1274.19038784588	146.61311824891	1823.66151983107	1157.99988845069	138.214040748598	2221.71570368368	1820.73152789944	161.271164254647	2583.62173085157	1362.15516848877	137	2512.25594042685	1179.77275081146	138.730792218287	1744.15811715395	892.880386837146	126	2189.33665136111	1256.71112546897	127.191454359776	2415.31602335164	298.67180001474	126	810.440287090787	2618.06785287346	134.203204162384	4102.85535688255
354.719190514	139.436102733458	788.305699010728	1658.8298946745	172.807472409102	2527.33725485294	1031.92613845346	137.8861026212	2142.91157002118	1713.21081367328	146.490003541385	2478.7861891624	1653.40397761723	127	3631.89999339786	1491.01773606768	135.099340396474	2205.97616967486	833.804871166329	125	1748.07724733635	1275.49209899842	146.621169833475	1825.22954325027	1158.07015034443	138.209390496348	2221.48703171924	1820.65990239258	161.307403669925	2582.13956146062	1361.89156572396	137	2511.07366246538	1178.87524047508	138.715955398024	1741.9023976855	893.712648537501	126	2191.23766563002	1257.47703081704	127.1669121072	2415.95719076298	298.774209448794	126	811.046060197503	2619.47891346309	134.17156235945	4103.05500709732
354.77633483784	139.40935545647	788.776263538041	1660.48164461974	172.857237565845	2530.19050843989	1032.2933402993	137.898917788843	2143.89482015139	1714.00172381764	146.516598376625	2480.45323407361	1654.00558368372	127	3635.7283715442	1491.32565599739	135.092074629778	2206.3215896611	834.096101194214	125	1749.96090451466	1276.89609028215	146.638927335854	1827.61370014925	1158.1452650705	138.214712391071	2221.67500734598	1820.90100613973	161.367596213553	2581.6199566989	1361.82960920536	137	2510.74361783677	1178.37891428219	138.707702569253	1740.50773776634	894.601299677413	126	2193.67489245803	1258.50593229382	127.146906347334	2417.39016387548	298.856613122982	126	811.662857750989	2620.80980926905	134.148233570231	4102.99609632544
354.828289542228	139.374945807342	789.417118028605	1661.8060226841	172.918923548709	2534.00674347017	1032.6709612665	137.917596325812	2145.71518418244	1714.81067838725	146.560012907358	2483.02630363373	1654.88262537072	127	3640.35792311883	1492.10862356585	135.103990648725	2207.9013595469	834.386112901942	125	1752.06062712839	1278.39403568074	146.664259680152	1830.55637124155	1158.228111729	138.224730527196	2222.07567397279	1821.32412377772	161.445420393414	2581.59490009634	1361.89610278742	137	2510.8803239586	1178.15828990119	138.706224119549	1739.57405473294	895.494578010371	126	2196.32086137183	1259.66864561147	127.135390877738	2419.12653705578	298.917770049098	126	812.234433939876	2622.00504378277	134.134063654841	4102.70923001617
354.86836292559	139.334239511607	790.137543948623	1662.78240007345	172.985173549133	2538.47964358011	1032.99761547637	137.938843073884	2148.0144660314	1715.50385324426	146.610992859863	2485.94541358315	1655.98265077467	127	3645.2649182101	1493.23506772346	135.135659976508	2210.17773106168	834.678694928173	125	1754.20284988551	1279.98399616394	146.69543400972	1833.81795449581	1158.33699492568	138.233946177232	2222.52223423885	1821.83097511042	161.531583433152	2581.65680642131	1362.03075623417	137	2511.14814918222	1178.09748819456	138.711994768322	1738.73669986927	896.349327125565	126	2198.88678379743	1260.86558953442	127.13242762988	2420.75800551973	298.957166277391	126	812.708248804523	2623.02687916386	134.127777377629	4102.27800475209
354.893446652767	139.290016514902	790.849456944481	1663.41587949416	173.048329340619	2543.25428110159	1033.23209251714	137.95927654881	2150.43789714503	1716.00709524468	146.66163929289	2488.71965762201	1657.25917862747	127	3650.07926740262	1494.56630990159	135.186635191412	2212.66480116081	834.989237790177	125	1756.27561262118	1281.66616457328	146.731219933348	1837.20057039242	1158.49958015191	138.238422484999	2222.90645741886	1822.36155266929	161.616620563772	2581.53273278844	1362.19334847472	137	2511.31807065409	1178.11106862354	138.723601626065	1737.74097140262	897.138794993662	126	2201.17173171993	1262.03194045504	127.139265681515	2422.00507772578	298.976295247097	126	813.042906750721	2623.86675404332	134.12618865601	4101.78372085042
354.90331404932	139.246768200508	791.483176237813	1663.74063876569	173.102147576192	2547.99366984052	1033.36330656619	137.976220778044	2152.70246415222	1716.31250702014	146.705183047074	2491.0151732474	1658.68394589469	127	3654.6492504038	1495.98860484625	135.253961226465	2215.01638611489	835.340758698569	125	1758.241704794	1283.44310851516	146.770707133932	1840.57238155342	1158.74113023666	138.238596429482	2223.19168081251	1822.88721626284	161.693132997502	2581.11933371498	1362.36019036139	137	2511.29085238197	1178.14593255801	138.739196273865	1736.47820145313	897.854844519502	126	2203.11085154213	1263.13423330701	127.155403878512	2422.76000095895	298.976295247097	126	813.219340251108	2624.54775325994	134.126974404306	4101.31272965689
354.899869048056	139.208063273451	792.001191347351	1663.81708398586	173.144110336901	2552.43322417421	1033.40848463251	137.988250197392	2154.65025580768	1716.47396475732	146.738413225343	2492.70571022391	1660.24373143102	127	3659.02472631019	1497.42809623345	135.332500466271	2217.06147487305	835.758205474792	125	1760.12441465649	1285.31311769716	146.811868669578	1843.86918021004	1159.08220564054	138.236480329804	2223.40739701274	1823.40818732383	161.755530911825	2580.4761812974	1362.52408050909	137	2511.09103547772	1178.18184703603	138.755880683065	1734.97986788323	898.505151576647	126	2204.75761431373	1264.16220952412	127.180233475972	2423.06532662756	298.957166277391	126	813.241077002654	2625.11178898432	134.127760222174	4100.91961782821
354.888290061445	139.178661909808	792.400421101842	1663.72804253846	173.175054304917	2556.40667154837	1033.41187082369	137.995349747749	2156.26040552452	1716.58873975362	146.760605404368	2493.86069264798	1661.93160155847	127	3663.3777651208	1498.85245087537	135.416990919207	2218.78629995112	836.259898898075	125	1761.97399133919	1287.26805620279	146.853544085403	1847.07297428416	1159.52565003747	138.238491613027	2223.62573540161	1823.92661911041	161.803872670298	2579.77487486529	1362.67829068459	137	2510.82179962182	1178.21111644899	138.772472441285	1733.37484341009	899.103266858528	126	2206.25126258857	1265.11468695264	127.213237775275	2423.07917614632	298.917770049098	126	813.134577263646	2625.59143510127	134.126974404306	4100.62398262282
354.873025595695	139.158726907866	792.70470599711	1663.56367418931	173.199885940204	2559.84285974552	1033.42970808119	137.998672777103	2157.62608650876	1716.76806086193	146.773594516495	2494.6853465568	1663.73186129801	127	3667.92430549499	1500.25824640104	135.50112890113	2220.29241744922	836.853093722259	125	1763.84484949433	1289.28899421532	146.892489880959	1850.19811374091	1160.06232576994	138.24878672464	2223.93259602854	1824.44773746768	161.840033782615	2579.22824551385	1362.81717258423	137	2510.6189006717	1178.23172552714	138.788084640448	1731.82963554994	899.667685674869	126	2207.76299180803	1265.99699618695	127.252638810742	2423.01008722079	298.856613122982	126	812.940055969761	2626.01108023742	134.124861433113	4100.41454696256
354.857761060371	139.147936798037	792.952522880773	1663.39645664574	173.224992385057	2562.73575291208	1033.5108181228	138	2158.89766552372	1717.09657752902	146.779657867194	2495.42748119317	1665.60176139119	127	3672.81069601396	1501.64710923245	135.579149384012	2221.71891792136	837.525720606974	125	1765.76006839238	1291.33957717617	146.927093271276	1853.25624429806	1160.66925923402	138.269220199567	2224.39600750941	1824.96122068682	161.868375343444	2579.01086175043	1362.93124795603	137	2510.59464751719	1178.23255968584	138.80343708915	1730.48397498878	900.211710211865	126	2209.44182351798	1266.8132972772	127.298443288156	2423.06150066726	298.774209448794	126	812.709716286212	2626.37317579479	134.124454348275	4100.26708665845
354.84537917001	139.143654075904	793.185313728103	1663.28433697578	173.257284255818	2565.12687023053	1033.69106485999	138	2160.23082188519	1717.62213054119	146.780985090091	2496.30392168028	1667.46123732402	127	3678.06663529328	1503.00273807481	135.647230237314	2223.18567390458	838.242780969595	125	1767.70940449176	1293.36170884168	146.954626296559	1856.24850908138	1161.31579703596	138.297116065259	2225.05374037422	1825.44260659398	161.892940313696	2579.21740663196	1363.00521723696	137	2510.81445818222	1178.19314822687	138.820295442833	1729.41699011044	900.744070821803	126	2211.37850585917	1267.56880742086	127.348371602325	2423.38651525793	298.673127237637	126	812.497214359849	2626.67115577427	134.12829132738	4100.1601668216
354.839088085624	139.14446010814	793.433025173162	1663.26430424082	173.302570045881	2567.05190690635	1033.98240174216	138	2161.72314436296	1718.34616217638	146.779571991643	2497.42909567656	1669.20129742619	127	3683.56924603438	1504.2820427971	135.702100886219	2224.7394462575	838.954874754937	125	1769.63982901902	1295.28240239459	146.974893555147	1859.14644734538	1161.96542019682	138.325812738352	2225.89745685144	1825.84653738771	161.916269102915	2579.82842933415	1363.01855142757	137	2511.27468238946	1178.07785016353	138.838162385343	1728.62449996979	901.262330848356	126	2213.57412619636	1268.26300783185	127.399792560257	2424.0497752224	298.559229858837	126	812.347846770128	2626.882734822	134.139527180237	4100.06936225742
354.839842903874	139.149538075452	793.706957023963	1663.357748403	173.363467151963	2568.51979507986	1034.37479984612	138	2163.38387789904	1719.229508827	146.778332682124	2498.79429726844	1670.69794132612	127	3689.08873663667	1505.41330876465	135.741388521285	2226.35029749245	839.601077834116	125	1771.47893738676	1297.01843948379	146.988250197392	1861.90617821859	1162.58562470611	138.347843556032	2226.88981846854	1826.12714808418	161.938843073884	2580.7373591896	1362.95530267397	137	2511.92380795303	1177.85182662632	138.857673146993	1728.03990460729	901.75747677815	126	2215.9545393972	1268.89691414512	127.449342141394	2425.03887211918	298.440770141164	126	812.29634766479	2626.99259764789	134.161717680574	4099.98270259614
354.850837888232	139.159960655163	793.998672777103	1663.58558833165	173.439704776128	2569.49624487828	1034.84487191268	138	2165.12762688861	1720.21717369683	146.779919725055	2500.28133435805	1671.83502583369	127	3694.34885442575	1506.31066270881	135.764359207696	2227.92585666424	840.122240293924	125	1773.15272880122	1298.48951345954	146.995349747749	1864.47635224824	1163.14958818235	138.356882202672	2227.96930842795	1826.24067949144	161.95927654881	2581.77899693143	1362.80291711168	137	2512.67806336175	1177.48664431465	138.875418183627	1727.56066996994	902.217543467441	126	2218.39813091662	1269.47248139052	127.492095457573	2426.28241807165	298.32819998526	126	812.360016091835	2626.99605042307	134.194800106805	4099.89013243837
354.873808644216	139.178661909808	794.28706550089	1663.96885220992	173.527824067602	2569.91725385242	1035.36084861579	138	2166.80776379862	1721.25417995138	146.786085775079	2501.71859126064	1672.5308533855	127	3699.11338505549	1506.89443643411	135.770362169866	2229.35315278818	840.470775704991	125	1774.60756432814	1299.63416446539	146.998672777103	1866.81938140492	1163.64827787768	138.351166585386	2229.08299259931	1826.17863223154	161.976220778044	2582.79819445644	1362.57116037741	137	2513.46529114141	1176.98051003444	138.889166851605	1727.09714070907	902.633570709582	126	2220.77454760866	1269.9982454164	127.523700834272	2427.68457030696	298.231768026354	126	812.539533095213	2626.90703095615	134.238067372735	4099.77137080293
354.911561537066	139.206829526153	794.547920326185	1664.53096315361	173.62171400785	2569.72776858748	1035.89533705659	138	2168.26802818679	1722.30278774846	146.799048694761	2502.94971676523	1672.76142164559	127	3703.26146878928	1507.11759546117	135.759934782981	2230.54864651552	840.621671587103	125	1775.82978046353	1300.42383645655	147	1868.92602118455	1164.08403825412	138.334239511607	2230.20820033995	1825.96318418153	161.988250197392	2583.70600748907	1362.28387013908	137	2514.2567459527	1176.35764785853	138.896792399797	1726.61205928898	903.010644768418	126	2222.99686008704	1270.49484645783	127.540899193223	2429.16907272666	298.161114154774	126	812.82104473607	2626.77205367682	134.288541899106	4099.60169551583
354.965266441811	139.245166923092	794.765875074141	1665.29311220075	173.715177911724	2568.91015098141	1036.42885809407	138	2169.39544182119	1723.35088095908	146.819056133314	2503.88748306483	1672.56803021452	127	3706.82896125922	1506.98009452309	135.734284163753	2231.49152953608	840.575768496649	125	1776.84882623217	1300.86941535719	147	1870.82626812324	1164.47764291262	138.313795736858	2231.36568900729	1825.66139186179	161.995349747749	2584.51057822228	1361.98922847279	137	2515.08480401121	1175.67322606794	138.898119622694	1726.13561635106	903.3700009524	126	2225.05693004858	1270.99531469905	127.543882217309	2430.71010737541	298.123736450614	126	813.18341137145	2626.66570958428	134.343018825447	4099.36096063249
355.035121939727	139.291864928459	794.941542415422	1666.27034089621	173.802638923	2567.50966789045	1036.95687846469	138	2170.15694696432	1724.41090337256	146.84537917001	2504.5393649111	1672.06027140448	127	3710.00481752298	1506.54176104849	135.696631650027	2232.23853153844	840.365998356477	125	1777.73829394258	1301.02946024559	147	1872.58715166874	1164.86038227225	138.299241454306	2232.62393314461	1825.36713355707	161.998672777103	2585.32338341894	1361.74605714957	137	2516.04488982562	1175.00157880174	138.893817103856	1725.76617603258	903.749723690832	126	2227.02831671534	1271.54361208314	127.536396067833	2432.33587401879	298.123736450614	126	813.604619799477	2626.68324822138	134.398719467077	4099.02817702376
355.120014739899	139.343018825447	795.090018902611	1667.46233271228	173.881439951095	2565.63489237299	1037.48533057146	138	2170.60573393772	1725.50602601868	146.875138566887	2504.99437598774	1671.39097554011	127	3713.06258091535	1505.90588985384	135.650555304495	2232.90194146066	840.045511264726	125	1778.58699886341	1300.99335912711	147	1874.2912515205	1165.26608813759	138.297649673774	2234.07680605194	1825.18147833983	162	2586.31645020291	1361.61353646397	137	2517.26150624703	1174.42111760424	138.887167986235	1725.63386131233	904.194714064487	126	2229.04249756629	1272.18701858838	127.523321963299	2434.12096313737	298.161114154774	126	814.068597865016	2626.92769214135	134.453497395429	4098.59672129145
355.216046854877	139.394069214826	795.234115277352	1668.8451809874	173.952176998453	2563.43320369316	1038.02233462681	138	2170.85315062141	1726.64987569038	146.905846523204	2505.37069503156	1670.73305490797	127	3716.29021330692	1505.20680252367	135.599953310026	2233.61838205626	839.684615655958	125	1779.48734620288	1300.8750962752	147	1876.0211268392	1165.72715984109	138.312211614897	2235.81856559094	1825.1935809021	162	2587.66779005711	1361.64050898908	137	2518.85426431198	1174.00073159776	138.881452368949	1725.86441914173	904.746225580621	126	2231.24067917464	1272.9672762929	127.509573295321	2436.14940525869	298.231768026354	126	814.568163274409	2627.49321794328	134.504472610333	4098.06102733541
355.31622787951	139.441747592821	795.394259304309	1670.36546680601	174.018271452131	2561.05487987021	1038.56968130463	138	2171.02654746559	1727.83168143708	146.934192821633	2505.76204378475	1670.23716974701	127	3719.88976575999	1504.57219007694	135.549605445275	2234.50287374058	839.351697829758	125	1780.50300337546	1300.78279795439	147	1877.83253990181	1166.26683372948	138.341422237741	2237.9030515406	1825.45911024342	162	2589.48605934405	1361.85480744858	137	2520.88601390536	1173.78730839567	138.88021305943	1726.52750901825	905.4282910668	126	2233.72602273391	1273.91182046152	127.498604037926	2438.48718458635	298.329527208157	126	815.109773720737	2628.44650865708	134.548690044816	4097.42415403769
355.412078809095	139.480693388377	795.580640503947	1671.93572585111	174.084936148072	2558.62791068736	1039.11287883519	138	2171.22735625195	1729.00411406242	146.957949325913	2506.19757103773	1670.00541310762	127	3723.92661070617	1504.09769023722	135.503254290177	2235.61481346038	839.102609656592	125	1781.66116631677	1300.80312563159	147	1879.74909884462	1166.8937825433	138.379188974755	2240.33116259507	1825.99062791182	162	2591.77991288805	1362.25507176558	137.001327222897	2523.34389282622	1173.79658218392	138.8861026212	1727.61834572973	906.237680809952	126	2236.53086412037	1275.02671431309	127.489902455106	2441.16160372598	298.446747616311	126	815.710295822699	2629.81147903135	134.582117439044	4096.70835133549
355.493158388873	139.507966593627	795.78665740827	1673.4363316834	174.158656149942	2556.22993334567	1039.61615014286	138	2171.49537018647	1730.08915643426	146.976220778044	2506.62098365385	1670.07216093862	127	3728.3052212081	1503.82835538961	135.465601776451	2236.9393554993	838.970595384538	125	1782.94438373309	1300.98535395595	147	1881.75528682572	1167.60612239014	138.41830098665	2243.03308809672	1826.76121555156	162	2594.43682826713	1362.81425351422	137.004650252251	2526.1227634315	1174.01525362051	138.898917788843	1729.04455806617	907.143564548647	126	2239.59474732347	1276.295785587	127.483777587059	2444.14126729311	298.576957136592	126	816.389919037002	2631.56190906313	134.600214946691	4095.93687979584
355.550190991	139.520960512927	795.990215334496	1674.72816891732	174.243141865278	2553.88319846212	1040.02735122274	138	2171.79954811387	1730.99399925837	146.988250197392	2506.90865243965	1670.41056532933	127	3732.8183401581	1503.7605784151	135.441553189685	2238.40393177841	838.964196676652	125	1784.3120945694	1301.34491471879	147	1883.82235473697	1168.39480182921	138.452787142658	2245.8897592378	1827.72141869492	162	2597.25890393363	1363.48851043549	137.011749802608	2529.05413283532	1174.40816427089	138.917596325812	1730.65056293422	908.093072822562	126	2242.7856106608	1277.69043193782	127.478153407545	2447.35635748518	298.714633737349	126	817.165170391788	2633.62759024995	134.600213268003	4095.15718572134
355.575427673298	139.517811272503	796.160039437869	1675.6704632407	174.339687930007	2551.57011273738	1040.28683713991	138	2172.05857867142	1731.63656949832	146.995349747749	2506.92142325026	1670.94412964768	127	3737.19002462464	1503.85042519636	135.434194702437	2239.89344411701	839.070128273633	125	1785.70444512171	1301.86975640646	147	1885.91604595377	1169.24838185542	138.480607512826	2248.75664986514	1828.81549929456	162	2600.01528484806	1364.22513703124	137.023779221956	2531.94326116261	1174.92546994396	138.938843073884	1732.24854514982	909.017664060018	126	2245.93056024573	1279.17122496571	127.472530906719	2450.7175782517	298.855112176798	126	818.03947013467	2635.88929382216	134.580214749047	4094.43060839323
355.564486336661	139.49780383395	796.266241744541	1676.14272692503	174.445332480036	2549.25823573635	1040.34187157761	138	2172.17542724654	1731.96884367716	146.998672777103	2506.55768964087	1671.57618964418	127	3741.19636667994	1504.04158197653	135.446224121785	2241.31070702091	839.260390022878	125	1787.08132454556	1302.54135012068	147	1888.03770468084	1170.15715532654	138.501665209418	2251.49853138895	1830.0009724112	162	2602.5033289942	1364.97574460591	137.04072345119	2534.61263710122	1175.51224290486	138.95927654881	1733.6590470349	909.849503832772	126	2248.86475023296	1280.69950755821	127.468308728669	2454.14904724068	298.992695301955	126	818.997781342889	2638.1990273877	134.542957272076	4093.83209104841
355.515872779644	139.461667117996	796.29213701655	1676.06306081289	174.554667519964	2546.93038133769	1040.16051857755	138	2172.08936208832	1731.99331924113	147	2505.81356285604	1672.21635485433	127	3744.72974659671	1504.28755309265	135.477626388625	2242.60792204823	839.505036925389	125	1788.43809558071	1303.35237751555	147.001327222897	1890.23495710965	1171.1168283961	138.518783383135	2254.02419131207	1831.26265536391	162	2604.60352279934	1365.70605633359	137.061156926116	2536.9485256314	1176.11988682707	138.976220778044	1734.74629520746	910.530312082913	126	2251.47592204438	1282.24510335729	127.466667141486	2457.61477076856	299.119855847401	126	820.003674473895	2640.39621306596	134.493510593848	4093.44255152729
355.432787211052	139.412747751794	796.24378685814	1675.40135070882	174.658984847096	2544.60861193417	1039.73988085341	138	2171.8130505041	1731.76312196647	147	2504.80732065861	1672.79533420683	127	3747.84697200111	1504.56175867306	135.52543147967	2243.81214938685	839.776215996262	125	1789.81278231919	1304.31251746044	147.005977475148	1892.60592834478	1172.11968320111	138.533876011803	2256.29955416306	1832.59733442544	162.001327222897	2606.29400421061	1366.39036346152	137.082403674188	2538.90744202688	1176.69882284798	138.988250197392	1735.43513958059	911.021910498854	126	2253.73113609475	1283.78601444968	127.471310152827	2461.12663078357	299.226132485184	126	821.005814644938	2642.3288916312	134.438232929679	4093.32698026462
355.322466991323	139.354506770194	796.152957639318	1674.19552571369	174.750880659575	2542.35570462538	1039.11729025585	138	2171.45032605397	1731.38610484573	147	2503.7657551621	1673.28112934472	127	3750.776248436	1504.86611224627	135.585657964365	2245.03180772307	840.059201770424	125	1791.29340612543	1305.45243581505	147.016400054859	1895.29235312635	1173.15461363787	138.548951902678	2258.37598337988	1834.01220863443	162.004650252251	2607.67400712904	1367.01375613508	137.101082211157	2540.54990686566	1177.20856568285	138.995349747749	1735.73620851993	911.309599300475	126	2255.68350112986	1285.30807080637	127.484575753208	2464.73480786704	299.299306412794	126	821.943906752282	2643.87639383276	134.385492407421	4093.52342091953
355.19656291085	139.291777015081	796.067928688664	1672.53980350663	174.823616572302	2540.25430038429	1038.36124081458	138	2171.16821383627	1730.99059269937	147	2502.95810585902	1673.67885972354	127	3753.83499989908	1505.22444083458	135.650687656431	2246.41345561557	840.352080895186	125	1792.98535740411	1306.81320896386	147.035529024564	1898.43470453261	1174.19944662803	138.56255288819	2260.36042430304	1835.4996375312	162.011749802608	2608.90982307149	1367.5634122818	137.1138973788	2541.99756341177	1177.61308205243	138.998672777103	1735.72656127611	911.404766252988	126	2257.46062190673	1286.80495438073	127.509835153182	2468.5131710435	299.327635555769	126	822.768733302541	2644.97394454759	134.342225211065	4094.05133094229
355.069152925397	139.228854781612	796.0421941044	1670.58549142398	174.873557352216	2538.38861446568	1037.56483721853	138	2171.15647410022	1730.70990306979	147	2502.62260882495	1674.0094566139	127	3757.33142125369	1505.65929583859	135.713850688827	2248.09576045462	840.658823541663	125	1794.98162965485	1308.41970900874	147.065829896043	1902.12910253456	1175.22358035254	138.573372249377	2262.3936650286	1837.03072824915	162.023779221956	2610.19667176234	1368.02665755646	137.118459717673	2543.40836948676	1177.88871718733	139	1735.5382446041	911.33717684013	126	2259.21539594814	1288.26976728123	127.54851632153	2472.51182707116	299.303949809413	126	823.447291803124	2645.61537256577	134.313538837794	4094.8883545924
354.955250739422	139.170235136553	796.119706327573	1668.5110848397	174.900825819865	2536.82521176603	1036.8246143593	138	2171.57029347728	1730.6450165508	147	2502.89426985462	1674.30585876934	127	3761.44810997114	1506.18712945625	135.769015022168	2250.14838958513	840.988686648022	125	1797.32029188331	1310.27376271564	147.106530629557	1906.38142376481	1176.18570013926	138.577908395805	2264.5962865531	1838.54684546122	162.04072345119	2611.68999124164	1368.38705852934	137.112570155904	2544.92015589832	1178.02369138666	139	1735.3183889631	911.149911308345	126	2261.07224947217	1289.69687611129	127.599409135651	2476.7149797078	299.227523610372	126	823.967804189738	2645.85869514201	134.300169729804	4095.97319464435
354.865923138048	139.120587144546	796.323000842807	1666.49693062534	174.90908637678	2535.60608494714	1036.22076391885	138	2172.48533739909	1730.84312142491	147	2503.76597832334	1674.58289968814	127	3766.17051234745	1506.79547948646	135.811856251725	2252.54284804431	841.341132973395	125	1799.96248159488	1312.33096753391	147.155310402913	1911.08948412039	1177.0465880327	138.574587045139	2267.04500063149	1839.97811955291	162.061156926116	2613.4792528741	1368.63266324378	137.096431958906	2546.62484497907	1178.02607778486	139	1735.20871895086	910.892049815811	126	2263.08941665059	1291.07991723991	127.658033587884	2481.02232934923	299.105370274314	126	824.342863687948	2645.81595751431	134.300037571997	4097.22609605744
354.809149403238	139.082207233226	796.646031279284	1664.69727520361	174.904519300307	2534.74267843191	1035.80354306507	138	2173.86693764511	1731.29112382811	147	2505.08155292793	1674.82824767709	127	3771.27131068319	1507.44340729058	135.841343850057	2255.14456578725	841.704077082705	125	1802.78515463508	1314.50415443209	147.207265107301	1916.05063909881	1177.76761879273	138.563525136765	2269.73302276671	1841.24397402349	162.083730897085	2615.55579040311	1368.74997178346	137.07065387158	2548.53114920538	1177.91469354313	139	1735.30782416895	910.606746426022	126	2265.2236931828	1292.40721964212	127.718233880134	2485.22287932445	298.954626296559	126	824.594354279827	2645.62150207907	134.307220436074	4098.53853309394
354.784042958385	139.058450728946	797.059282621555	1663.21694585368	174.894267536593	2534.23282489913	1035.58302794861	138	2175.58553378352	1731.92077634297	147	2506.58976771433	1674.9998304708	127	3776.35104834999	1508.06524001547	135.858738512028	2257.73850389971	842.050694488438	125	1805.59648860445	1316.67308153144	147.255703041147	1920.99606479538	1178.32360004345	138.545833661872	2272.57034635448	1842.27882101719	162.105732463407	2617.82276515436	1368.73350092286	137.03737770416	2550.56601324124	1177.71971198586	139	1735.65485786408	910.32889646344	126	2267.34159439697	1293.66499795442	127.77301661566	2489.02925925578	298.796616552108	126	824.748700620396	2645.41389191329	134.316437764798	4099.81272924898
354.785020410043	139.050212889706	797.515190668828	1662.09341333755	174.884775398303	2534.05273244054	1035.52808888718	138	2177.43641141307	1732.62087188228	147	2507.99681866683	1675.03344140118	127	3780.93898987658	1508.58409834153	135.868375343444	2260.08228640699	842.34397602199	125	1808.17455272289	1318.7030328023	147.29351402259	1925.6451688113	1178.70233230628	138.526495166018	2275.40193265983	1843.03778821736	162.125647181409	2620.12575963279	1368.58186838222	137	2552.59335902694	1177.46938725032	139	1736.22594135143	910.079231179598	126	2269.23436182439	1294.83297079909	127.816687837942	2492.10572930944	298.654543690875	126	824.823422811213	2645.30601636059	134.322995910128	4100.95259917117
354.800114059796	139.057123506049	797.957795171849	1661.30013176138	174.881540282327	2534.15496129847	1035.57627760809	138	2179.18462324266	1733.26628846835	147	2509.03533839286	1674.86424546033	127.001327222897	3784.6061519211	1508.9354341881	135.875562807179	2261.96571097367	842.544246863206	125	1810.30919593567	1320.47618039911	147.314760770662	1929.76283005796	1178.91008914537	138.510361081444	2278.03009472326	1843.5080775281	162.142238939629	2622.27980482356	1368.30356929008	136.96262229584	2554.4363488022	1177.18585519792	139	1736.93406375655	909.866358333918	126	2270.67584849452	1295.88868334072	127.847116177518	2494.1479160481	298.548267053093	126	824.826803692872	2645.37008430333	134.327135154075	4101.88377722556
354.814932899984	139.077556980975	798.338260306285	1660.75966724081	174.8861026212	2534.47771210763	1035.65023774153	138	2180.62336086427	1733.74151770214	147	2509.53120033419	1674.45427064084	127.004650252251	3787.07029709239	1509.09181835111	135.884775398303	2263.26319357931	842.624756072624	125	1811.84708454746	1321.91859750845	147.316061801114	1933.20050543147	1178.96620174232	138.502863070922	2280.25760598002	1843.70253823033	162.15462082999	2624.11315181501	1367.91208231536	136.92934612842	2555.92571641962	1176.87877340401	139	1737.65340500389	909.689222576717	126	2271.48261688134	1296.80864812599	127.863281899366	2494.96006397355	298.490005441269	126	824.764202353858	2645.63002048083	134.330745528313	4102.56081023616
354.815889671792	139.107510119041	798.623371556076	1660.36798582554	174.898917788843	2534.94859752505	1035.67422479553	138	2181.61968602965	1733.96517486541	147	2509.44001416949	1673.80341470535	127.011749802608	3788.26126650266	1509.06456741347	135.898917788843	2263.96162756699	842.573702624332	125	1812.71930595198	1323.00834909418	147.297383264146	1935.91448653703	1178.8984992186	138.506058562605	2281.92096394032	1843.65528959535	162.162239137273	2625.49084573001	1367.42520196604	136.903568041094	2556.92335596557	1176.54534057773	139	1738.24075861863	909.541244833335	126	2271.56419329654	1297.57310806864	127.86757237012	2494.51430990172	298.482102917589	126	824.643808358051	2646.07321687939	134.339687930007	4102.96681988376
354.793437672733	139.141805662347	798.802447386406	1660.02683059912	174.917596325812	2535.49446544682	1035.59617057729	138	2182.14649906237	1733.90923725128	147	2508.85423623027	1672.97242494812	127.025106444853	3788.3600804113	1508.92037974501	135.917596325812	2264.17383195671	842.409159887697	125	1812.96738690198	1323.78956944087	147.262020317978	1937.97518072029	1178.73855326999	138.5185188255	2282.92328105712	1843.41421544407	162.164807348377	2626.33880427059	1366.86545876746	136.887429844096	2557.35534500066	1176.17544564066	139	1738.5688257739	909.41539392662	126	2270.9615629223	1298.16800879422	127.862061541382	2492.98161014696	298.517381425148	126	824.488126062575	2646.65519703964	134.357728817001	4103.11511939955
354.744657899377	139.175054304917	798.88970292268	1659.66691123953	174.938843073884	2536.05302160027	1035.39852014948	138	2182.28878422322	1733.60634055081	147	2507.98086993596	1672.06086225506	127.046700926337	3787.73829069983	1508.74835499375	135.938843073884	2264.09897274233	842.168657396651	125	1812.72485832752	1324.34727147329	147.215777756107	1939.53070702364	1178.51260163515	138.536795015232	2283.24970392242	1843.02616009173	162.162239137273	2626.64696527816	1366.2547922115	136.881540282327	2557.22086658429	1175.75603419108	139	1738.55145186195	909.308067248945	126	2269.84587468655	1298.59060972803	127.850573596635	2490.71269985883	298.581607388843	126	824.334531516475	2647.32363647032	134.387515738728	4103.04349735595
354.674454460534	139.202190614758	798.917694949483	1659.27391011598	174.95927654881	2536.57493227093	1035.10705649301	138	2182.21405441837	1733.14824143535	147	2507.08145698594	1671.19738140171	127.078884203872	3786.88846664347	1508.64786554311	135.95927654881	2263.98145456911	841.908398052426	125	1812.19957791179	1324.79109488311	147.165584884303	1940.77988819648	1178.24373048986	138.555186276889	2282.98185227077	1842.54311813197	162.155948052887	2626.48105619296	1365.62072925503	136.8861026212	2556.60317367026	1175.28555535366	139	1738.17117502123	909.220290381429	126	2268.49534822731	1298.84875720256	127.836166578886	2488.18373151123	298.657076954018	126	824.23452492446	2648.02498549981	134.426902560189	4102.82017661346
354.594758883401	139.220957065105	798.926512397118	1658.88706374472	174.976220778044	2537.0275577099	1034.78176771468	138	2182.1277768092	1732.66783775331	147	2506.40922752321	1670.50478625417	127.122582951003	3786.29027201917	1508.69410738764	135.976220778044	2264.03771848028	841.684599749072	125	1811.61913540326	1325.22515471604	147.117932698753	1941.91523535862	1177.94867078404	138.568447187561	2282.26538359511	1842.01061556585	162.14688919188	2625.94692920606	1364.99011523255	136.898917788843	2555.6342193554	1174.77486733308	139	1737.47029742104	909.158601092318	126	2267.2308065973	1298.96531753533	127.823618472186	2485.89794794663	298.72764291222	126	824.241365692787	2648.72059748818	134.470441624663	4102.51935809707
354.523000092065	139.231379644816	798.958315452718	1658.59548042597	174.988250197392	2537.40879905773	1034.50555248548	138	2182.23192834396	1732.31234793188	147	2506.16427573021	1670.07275490723	127.177334686911	3786.31549715079	1508.9202917518	135.988250197392	2264.41151727845	841.542391671119	125	1811.19249156457	1325.72615147304	147.077556980975	1943.09196865785	1177.63739210456	138.572452111318	2281.28153427836	1841.46936665772	162.137396984017	2625.16807022168	1364.38963535977	136.917596325812	2554.47216350669	1174.24867987036	139	1736.53850873805	909.132732450363	126	2266.34982458125	1298.97280253641	127.815186891758	2484.28654900592	298.781158813377	126	824.396245808961	2649.38793165365	134.510079634392	4102.21547497815
354.474909891632	139.236392416426	799.044952749544	1658.51294949931	174.996676970646	2537.73713941215	1034.36176245121	138	2182.67649536759	1732.21133452304	147	2506.45784701051	1669.93021563731	127.239556978063	3787.12765817377	1509.30160640922	135.995349747749	2265.12571796242	841.501225535814	125	1811.05442096548	1326.3259900455	147.046700926337	1944.38881424454	1177.30927502192	138.565639836272	2280.20144004417	1840.94157876487	162.129511685363	2624.24632419116	1363.83413060437	136.938843073884	2553.25763271289	1173.73364635679	139	1735.47553124732	909.147167194741	126	2266.05743546629	1298.90501203328	127.811863862404	2483.61700839806	298.811587152954	126	824.716817710336	2650.01026720772	134.538516905113	4101.96411351513
354.464658127918	139.24088420096	799.204564720197	1658.75658158133	175.004650252251	2538.04635226309	1034.41768486213	138	2183.53416792123	1732.45766329167	147	2507.30132361501	1670.04420216648	127.302743769168	3788.68391661226	1509.76651482137	135.998672777103	2266.09257404098	841.55117952284	125	1811.25153446954	1327.01430133183	147.025106444853	1945.81085471675	1176.95291134434	138.546152833332	2279.15013677418	1840.42569629163	162.124454348275	2623.23552351068	1363.32350580872	136.95927654881	2552.08494452811	1173.24477660843	139	1734.35876538786	909.199407814996	126	2266.42384920235	1298.78807656953	127.813195892475	2483.93811569207	298.817908195925	126	825.188031513512	2650.57787381049	134.55133214233	4101.78921122234
354.498689113588	139.248336291903	799.441788527786	1659.4190310343	175.017727277756	2538.38431312171	1034.70937088498	138	2184.79940638415	1733.0883445271	147	2508.62789131114	1670.33039328388	127.358540190262	3790.75474441049	1510.21643837734	136	2267.13464957112	841.658575062485	125	1811.73766676392	1327.7476924088	147.011749802608	1947.29260343455	1176.54503749634	138.515177816071	2278.18241241576	1839.89079758845	162.122313852232	2622.12365901548	1362.83750640901	136.976220778044	2550.98347435391	1172.77669306135	139	1733.21456733488	909.273116002437	126	2267.3758087895	1298.63163891447	127.817037609181	2485.07920929479	298.805088221107	126	825.766905594437	2651.07538391306	134.549593027421	4101.69456058533
354.575473345863	139.262820521954	799.747471020423	1660.54364245978	175.041506499712	2538.80395764715	1035.23045428316	138	2186.39472232686	1734.07257921351	147	2510.30395949284	1670.66886392333	127.398465475302	3792.98908810097	1510.54404719359	136	2268.02530168165	841.771916648946	125	1812.38420738939	1328.45948195591	147.004650252251	1948.71442967782	1176.05207989266	138.474829623144	2277.26280352039	1839.27356380428	162.123127125378	2620.8170860627	1362.3354633892	136.988250197392	2549.90039487783	1172.29454720818	139	1732.00077238827	909.338932621775	126	2268.70792922584	1298.42205968981	127.821599948054	2486.68024662358	298.778330644297	126	826.388104494017	2651.48197576062	134.537983110764	4101.65615807816
354.685672506621	139.284822088276	800.106585666429	1662.11712009487	175.082229950902	2539.37276836508	1035.93611024608	138	2188.20053069856	1735.31978535302	147	2512.16538003421	1670.9367666867	127.415842981819	3795.0110013704	1510.66461714313	136	2268.54658961614	841.83647485327	125	1813.02012730302	1329.07892482096	147.001327222897	1949.93503097758	1175.43915680194	138.429020338555	2276.28894586602	1838.49341961844	162.124861433113	2619.16842912167	1361.76716590845	136.995349747749	2548.72608016139	1171.74725592805	139	1730.62364847967	909.357118243196	126	2270.12362799477	1298.12656848737	127.826011060119	2488.26953437812	298.743513910331	126	826.977070457456	2651.77249872071	134.526519562382	4101.63572523629
354.813981640771	139.314153770093	800.501285772209	1664.06384862588	175.144714099915	2540.17256562301	1036.74506931784	138	2190.07573765381	1736.68324870799	147	2514.03040710944	1671.03041555242	127.40741140139	3796.4631726566	1510.52855739197	136	2268.50969236999	841.805602363764	125	1813.45210935898	1329.54443750473	147	1950.79845051154	1174.67668109156	138.381516300952	2275.10437091602	1837.467085789	162.125647181409	2616.99127206886	1361.08218649975	136.998672777103	2547.30555265472	1171.07692051136	139	1728.95641792335	909.288057149823	126	2271.29269817934	1297.70485139085	127.830542399373	2489.35792406285	298.70454192233	126	827.464745072103	2651.92994167341	134.5246409242	4101.59799579689
354.941098838317	139.34704994165	800.912726980956	1666.25957970889	175.230440803457	2541.2993512945	1037.55592180085	138	2191.88012540277	1737.98444497227	147	2515.71860761589	1670.87764383839	127.37416275882	3797.05385950115	1510.12429196687	136	2267.77493848177	841.646209575652	125	1813.49517321529	1329.80751991298	147	1951.15125472202	1173.74957750983	138.337039046434	2273.53379178137	1836.12717318106	162.123109969924	2614.09051950458	1360.24219172433	137	2545.46636621587	1170.23710481393	139	1726.86867981379	909.09374589634	126	2271.8981708756	1297.11276880102	127.83643363983	2489.51625102412	298.663652254801	126	827.795665531524	2651.93581350745	134.54037203636	4101.51854516974
355.04826392372	139.378983827068	801.328498097784	1668.54545947885	175.338622564971	2542.87279568656	1038.26217192047	138	2193.50584315157	1739.03622404866	147	2517.07563643256	1670.45019911548	127.321162486102	3796.55851366114	1509.47978603764	136	2266.24270956459	841.343506361509	125	1812.98906407242	1329.84349664344	147	1950.84700542922	1172.66008266922	138.298536763756	2271.4166868815	1834.43801278997	162.115224601697	2610.29850387425	1359.22721788946	137	2543.04777119898	1169.2049166796	139	1724.25347198667	908.746481865653	126	2271.67552005966	1296.31558229256	127.844051947113	2488.4276210294	298.619059562056	126	827.927877542323	2651.7740068506	134.576969554446	4101.3892162585
355.119584700172	139.405648201437	801.736959864948	1670.75361648195	175.46454936312	2544.9898421515	1038.76870252102	138	2194.86642541804	1739.67403690799	147	2517.9625580576	1669.74928837325	127.256392614069	3794.8153992587	1508.63822793985	136	2263.84692619125	840.89728715063	125	1811.81368284525	1329.64358047861	147	1949.7630008129	1171.43213815063	138.267020341468	2268.64506899334	1832.40882015785	162.101082211157	2605.50745122534	1358.04322733837	137	2539.93250734275	1167.98980761259	139	1721.05043502452	908.226513911379	126	2270.44179774698	1295.28845078636	127.85311080812	2485.91894522394	298.566067551333	126	827.836065166315	2651.41866209437	134.632247218615	4101.23203800522
355.144781758177	139.421837612421	802.120863457649	1672.72065091503	175.599953310026	2547.68530761368	1039.00569252194	138	2195.88878918011	1739.77392976572	147	2518.24742594661	1668.8023576215	127.188934303745	3791.72718945797	1507.65162134306	135.998672777103	2260.55678059216	840.320689947157	125	1809.90133626539	1329.22032988128	147	1947.82341355096	1170.11106967973	138.245018775146	2265.18130326797	1830.10393792642	162.082403674188	2599.69606441776	1356.72508511181	137	2536.06835956132	1166.63759868309	139	1717.26051978835	907.525818872068	126	2268.095879944	1294.02151737972	127.862603015983	2481.9418287268	298.499024191933	126	827.501074284188	2650.83468658712	134.699164123911	4101.06772422106
355.119584700172	139.425586678148	802.455634943924	1674.30794893471	175.734284163753	2550.90130229352	1038.93599549174	138	2196.50800150231	1739.27467128151	147	2517.81370140583	1667.65501009346	127.126986822159	3787.25322575812	1506.57034819228	135.995349747749	2256.37936617103	839.637470441728	125	1807.23897389792	1328.60603483997	147	1945.01629955152	1168.76013432361	138.232719285566	2261.0637926484	1827.63924044896	162.061156926116	2592.94061871902	1355.33363694837	137	2531.47715716278	1165.22741466908	139	1712.9452368999	906.650699262102	126	2264.63754056636	1292.5257575605	127.870488314637	2476.58192896616	298.412607865843	126	826.91412539687	2649.99072883835	134.767280714434	4100.93960297288
355.046936700823	139.418056284243	802.706117007252	1675.40500220624	175.855285900085	2554.45542805831	1038.55571105727	138	2196.6569799134	1738.17601903828	147	2516.56123547642	1666.36232102492	127.076252475754	3781.46352323612	1505.43791552372	135.988250197392	2251.39797019835	838.878382082801	125	1803.887680794	1327.85074886423	147	1941.43176426386	1167.45809052645	138.230873305745	2256.41147539642	1825.18498566753	162.04072345119	2585.42947249261	1353.95747826422	137	2526.27171749498	1163.86897505031	139	1708.23132028503	905.62484692692	126	2260.14696480209	1290.83824127003	127.875545651725	2470.01352981783	298.304577331136	126	826.070429824251	2648.87838329326	134.823616572302	4100.86279766526
354.93512136317	139.401526867991	802.829764367828	1675.94141775417	175.951717858991	2558.04703846256	1037.89433962919	138	2196.27324500004	1736.54381675089	147	2514.43000521771	1664.99146547326	127.040179276815	3774.55311705393	1504.29756092683	135.976220778044	2245.78896980517	838.081078302384	125	1799.97906717641	1327.02422806069	147	1937.26563602658	1166.2915175816	138.23892489031	2251.41050512488	1822.94409791279	162.023779221956	2577.4568650789	1352.6995431154	137	2520.65199918796	1162.68862203387	139	1703.30347019972	904.492286287522	126	2254.78686867432	1289.02512420283	127.877686147768	2462.49250673738	298.17849930618	126	824.975345718466	2647.53329931874	134.857157297357	4100.82836923868
354.796254363015	139.381256480918	802.783933016879	1675.89470570464	176.013940150143	2561.29742624411	1037.01191647789	138	2195.31704340829	1734.50717846533	147	2511.42975189477	1663.62811323139	127.017727277756	3766.88133698411	1503.20507036799	135.95927654881	2239.84017141943	837.292671942326	125	1795.71617316828	1326.21568286561	147	1932.81751195428	1165.34254398166	138.254751781934	2246.30161000457	1821.12600334514	162.011749802608	2569.40657941063	1351.66537851678	137	2514.89992156421	1161.81148485251	139.001327222897	1698.39278094661	903.315740546985	126	2248.79999021556	1287.18009396996	127.876872874622	2454.34552813739	298.043784981821	126	823.652288116278	2646.04098569516	134.86064654305	4100.81751642469
354.645493229806	139.361601582951	802.536263695882	1675.294044473	176.035446718249	2563.80832284998	1035.9913717414	138	2193.78975197189	1732.24439207804	147	2507.66131200304	1662.36856631298	127.005977475148	3758.95562914414	1502.22385221307	135.938843073884	2233.93295222337	836.563304440451	125	1791.35427277313	1325.52102954027	147	1928.45395320624	1164.68491270507	138.273949075828	2241.36501958283	1819.92221268728	162.004650252251	2561.72767600649	1350.94956772805	137	2509.35893140477	1161.34586350684	139.004650252251	1693.76492662885	902.171229936037	126	2242.4896811687	1285.41573305392	127.87381134399	2445.94454694858	297.914013338481	126	822.142072668861	2644.5368644655	134.831506678129	4100.80229421414
354.497893647212	139.346209579529	802.073754049842	1674.22069415202	176.01526737304	2565.24739330402	1034.92971061331	138	2191.75697111761	1729.96375400169	147	2503.33043460122	1661.31960625735	127.001327222897	3751.3998416556	1501.4299783664	135.917596325812	2228.50901072435	835.944246788911	125	1787.18088784947	1325.03410856101	147	1924.56533707517	1164.37123695821	138.291781752682	2236.90663486947	1819.47778475682	162.001327222897	2554.90196392396	1350.62055668794	137	2504.41447804305	1161.36577340974	139.011749802608	1689.70487187711	901.135715604367	126	2236.20201028366	1283.84750787286	127.869702566341	2437.68932434343	297.803952938786	126	820.506274747901	2643.17523426388	134.772882225897	4100.76250584103
354.368379262075	139.335556434681	801.412039754048	1672.79975137508	175.957695334139	2565.42443902748	1033.92896610949	138	2189.35891591581	1727.87997159178	147	2498.74295009041	1660.58310812205	127	3744.86902882422	1500.89688360379	135.898917788843	2224.00725967396	835.481046715048	125	1783.47741359822	1324.82997700186	147	1921.50307272816	1164.42414028056	138.305805299799	2233.21979043742	1819.86016914656	162	2549.38444204205	1350.70547247182	137	2500.4400529264	1161.8932217797	139.023779221956	1686.48609481622	900.276769814163	126	2230.29095844551	1282.57819037486	127.865140227468	2429.97896632617	297.725011421315	126	818.822118231425	2642.10154801205	134.692256207342	4100.6942814211
354.268624273815	139.33011261594	800.599078488101	1671.18090515356	175.873013177841	2564.34042236792	1033.07729263748	138	2186.80327155872	1726.17471967959	147	2494.27458463245	1660.24296000448	127	3739.96697227773	1500.68774331059	135.8861026212	2220.80735640268	835.207657365321	125	1780.49221584157	1324.95351916021	147	1919.53779815903	1164.83788625217	138.313891912231	2230.55777085205	1821.06155147278	162	2545.55422649528	1351.19145418101	137	2497.75064723509	1162.90321312522	139.04072345119	1684.34285817637	899.642085379683	126	2225.07828547915	1281.67969989709	127.85966895345	2423.16872428741	297.68350222183	126	817.171675952223	2641.41817771562	134.59862608713	4100.59800103002
354.206487858214	139.329672435133	799.707790482631	1669.5184672941	175.775790663465	2562.19762497735	1032.4423290735	138	2184.34355634412	1724.97936832514	147	2490.32693031037	1660.3517626871	127	3737.1361613804	1500.8424487534	135.881540282327	2219.16276686684	835.140553245426	125	1778.39996690438	1325.41394176824	147	1918.81409206517	1165.57764818947	138.31622787951	2229.10359075961	1822.99360130517	162	2543.67189783086	1352.02682794843	137	2496.56108004099	1164.32177142504	139.061156926116	1683.44232748003	899.257120142806	126	2220.81606973871	1281.19284947574	127.852216862506	2417.54046714812	297.680964940772	126	815.633356014852	2641.18199519758	134.50192706728	4100.47522055697
354.186220599627	139.331531276609	798.829252449103	1667.94851817109	175.682183260928	2559.3631320604	1032.06073754484	138	2182.24405194014	1724.35490512063	147	2487.2739820983	1660.91680121223	127	3736.58993677829	1501.36738065953	135.8861026212	2219.16823072835	835.275996259818	125	1777.28512626376	1326.18335346635	147.001327222897	1919.33940507883	1166.58469758114	138.314233751741	2228.92778861803	1825.50475617354	162	2543.82656489342	1353.13358591801	137	2496.9347179176	1166.04124581766	139.082403674188	1683.84765135916	899.124192610925	126	2217.66889715546	1281.11979627859	127.83871212194	2413.28592721064	297.71457168615	126	814.275728475649	2641.39432894915	134.409276436551	4100.3285808923
354.206140124802	139.333693299405	798.053313337443	1666.56588153692	175.606609017241	2556.28663319053	1031.93480588541	138	2180.72935940984	1724.28538687317	147	2485.39717479034	1661.89367483452	127	3738.2589757088	1502.23113514437	135.898917788843	2220.74026859418	835.588299075274	125	1777.12228224037	1327.20024106206	147.004650252251	1920.9848049133	1167.78450307948	138.30869505187	2229.98316706043	1828.39681736844	162	2545.93338466025	1354.41990699667	137	2498.77841353736	1167.93424740573	139.101082211157	1685.50993561004	899.226478996071	126	2215.70405574979	1281.43436739738	127.814932899984	2410.50274272449	297.780389164339	126	813.155499271676	2642.01752750368	134.326872762363	4100.16349457585
354.263523588827	139.335566734504	797.453114000999	1665.41733826327	175.559762863927	2553.40706331225	1032.03670857873	138	2179.94451364705	1724.69169646386	147	2484.83958834633	1663.18447896981	127	3741.79277343609	1503.35900216952	135.917596325812	2223.62700343851	836.030095744593	125	1777.77867579744	1328.37406622516	147.011749802608	1923.50577717564	1169.09668655715	138.300835876089	2232.10041380163	1831.45503142598	162	2549.74016463935	1355.79753954991	137	2501.84879952067	1169.87016897283	139.113897378801	1688.26841460694	899.535785786111	126	2214.89648106492	1282.09419539468	127.777291609649	2409.20446151072	297.874949725973	126	812.313856153235	2643.00212317285	134.257284255818	4099.98194119736
354.351642880302	139.33591927509	797.075100390065	1664.50079041885	175.545563763212	2551.07853806746	1032.31456106371	138	2179.93476083089	1725.44792779335	147	2485.59248307822	1664.65235332073	127	3746.62071364678	1504.6448748994	135.938843073884	2227.45502467937	836.540304940773	125	1779.03533591555	1329.59955169877	147.023779221956	1926.58323598662	1170.43563555634	138.291777015081	2235.0119949057	1834.46163497761	162	2554.86289562096	1357.18432877567	137	2505.78974591022	1171.72659455414	139.118459717673	1691.87236461782	900.017356754806	126.001327222897	2215.15477992698	1283.05155740762	127.724913997373	2409.35060700999	297.998076851351	126	811.782783944238	2644.29822263213	134.202016891472	4099.79551135235
354.465714203586	139.336342182977	796.931203397204	1663.77811965543	175.560377796225	2549.51185100053	1032.70619277489	138	2180.64019272699	1726.40904514378	146.998672777103	2487.4987403385	1666.14135450431	127	3752.06628429194	1505.96047189956	135.95927654881	2231.79346808453	837.050939473291	125	1780.63015423391	1330.76758981409	147.04072345119	1929.8789951029	1171.71661136597	138.283852898614	2238.38923226317	1837.21532223214	162	2560.83972106622	1358.50725044293	137	2510.18616957589	1173.39631384996	139.113897378801	1696.01474215415	900.632649265675	126.004650252251	2216.34642769007	1284.25642105932	127.661727206268	2410.86667875873	298.149364352166	126	811.582869507724	2645.86016567771	134.16138135366	4099.62847079269
354.600824271926	139.338272793732	797.004009623126	1663.19173195424	175.596086106298	2548.7646351356	1033.1497650674	138	2181.92149604008	1727.43567085424	146.995349747749	2490.30176428305	1667.50513506121	127	3757.46890790573	1507.17807832453	135.976220778044	2236.2228161525	837.498231987202	125	1782.29921390966	1331.78062615964	147.061156926116	1933.08402128032	1172.8623020136	138.278938088728	2241.89297653544	1839.5486674426	162	2567.18837624422	1359.70372428105	137	2514.6208044329	1174.79738411511	139.101082211157	1700.37054789076	901.342608785429	126.011749802608	2218.30990504902	1285.65913632928	127.596086106298	2413.64341627387	298.328998151409	126	811.719677516088	2647.64699839427	134.136536766668	4099.50270467061
354.754291823503	139.345312159146	797.250822547807	1662.68966241151	175.641727008625	2548.73999774251	1033.59715352282	138	2183.58114061371	1728.42244271614	146.988250197392	2493.68010923866	1668.63638628566	127	3762.28785278216	1508.18954070852	135.988250197392	2240.38642139203	837.835250733679	125	1783.81779731446	1332.56665999395	147.082403674188	1935.95326967258	1173.80722944535	138.278443090512	2245.22930688731	1841.33790068955	162	2573.46905986515	1360.71983450319	137	2518.74054255574	1175.87129660921	139.082403674188	1704.63629290272	902.105132648736	126.023779221956	2220.88150189349	1287.20130386041	127.539050375685	2417.5412858594	298.534936035814	126	812.182655929295	2649.60400986277	134.129887649048	4099.4504380494
354.924024233696	139.357039244078	797.610583692357	1662.23624583359	175.685753830405	2549.21751408504	1034.01779466998	138	2185.3930189088	1729.30516009464	146.976220778044	2497.29776575252	1669.48131144338	127	3766.17478795502	1508.92127952947	135.995349747749	2244.02555274034	838.036108742815	125	1785.02407900462	1333.08352742226	147.101082211157	1938.32540401341	1174.50852036467	138.28291215737	2248.18720984647	1842.5155409023	162	2579.31765842239	1361.51439302336	137	2522.28994043494	1176.58777412003	139.061156926116	1708.55408732219	902.876687789679	126.04072345119	2223.90389859027	1288.81210987339	127.501753343993	2422.3822231392	298.761665428379	126	812.945467108339	2651.65825198011	134.144714099915	4099.52301820354
355.107857852454	139.372573849633	798.016050421562	1661.82077113516	175.720784935783	2549.90875112957	1034.40221932826	138	2187.1395213046	1730.06382498735	146.95927654881	2500.84776463374	1670.039208866	127	3768.97064653206	1509.3373673414	135.998672777103	2246.98064120697	838.094129652839	125	1785.82176655767	1333.31695037062	147.113897378801	1940.11247810801	1174.94892100924	138.291343737799	2250.65519941942	1843.07065006652	162	2584.47070516975	1362.0604258001	137	2525.12640258682	1176.94069307347	139.04072345119	1711.92538545058	903.614596240204	126.061156926116	2227.22340423809	1290.40493960117	127.491506387453	2427.93624763906	299	126	813.963870930209	2653.71032993941	134.182783105311	4099.76571235872
355.303093540407	139.388296887365	798.401561109307	1661.45360110877	175.744042967079	2550.50196489395	1034.75407622083	138	2188.626744183	1730.71239367317	146.938843073884	2504.07637833729	1670.3521940642	127	3770.68231399755	1509.43824152835	136	2249.18606790808	838.021166572246	125	1786.176351388	1333.27574761004	147.118459717673	1941.29245458003	1175.14071203066	138.301418584098	2252.61835032295	1843.04965230393	162	2588.76817268413	1362.35226520111	137	2527.21448806011	1176.95006665344	139.023779221956	1714.61713300715	904.280871329664	126.082403674188	2230.68499681429	1291.88913476126	127.511939862379	2433.91971779982	299.238334571621	126	815.178734219547	2655.65908386848	134.244919520912	4100.20623828458
355.506229586118	139.398835926391	798.710601303886	1661.1614352324	175.75630288553	2550.71887251242	1035.08747440059	138	2189.70637827515	1731.28726700314	146.917596325812	2506.80314817007	1670.4877831991	127	3771.43178336218	1509.25669954875	136	2250.65567591109	837.840105531093	125	1786.10363561304	1332.98720428421	147.113897378801	1941.89222569296	1175.12619244522	138.312992763535	2254.12867881566	1842.55161294526	162	2592.14059462863	1362.41022272946	137	2528.59406560757	1176.66083151647	139.011749802608	1716.55897261778	904.851415547903	126.101082211157	2234.12308169795	1293.18138008859	127.560377796225	2440.00229172502	299.465063964186	126	816.518763054353	2657.42109700286	134.325545539466	4100.83428368177
