Light	Light	Light	Light	Light	Light	Light	Light	Light	Light	Light	Light	Light	Light	Light	Light	Light	Light	Light	Light	Light	Light	Light	Light	Light	Light	Light	Light	Light	Light	Light	Light	Light	Light	Light	Light	Light	Light	Light	Light	Light	Light	Light	Light	Light	Light	Light	Light
Optode1-730nm	Optode1-Ambient	Optode1-850nm	Optode2-730nm	Optode2-Ambient	Optode2-850nm	Optode3-730nm	Optode3-Ambient	Optode3-850nm	Optode4-730nm	Optode4-Ambient	Optode4-850nm	Optode5-730nm	Optode5-Ambient	Optode5-850nm	Optode6-730nm	Optode6-Ambient	Optode6-850nm	Optode7-730nm	Optode7-Ambient	Optode7-850nm	Optode8-730nm	Optode8-Ambient	Optode8-850nm	Optode9-730nm	Optode9-Ambient	Optode9-850nm	Optode10-730nm	Optode10-Ambient	Optode10-850nm	Optode11-730nm	Optode11-Ambient	Optode11-850nm	Optode12-730nm	Optode12-Ambient	Optode12-850nm	Optode13-730nm	Optode13-Ambient	Optode13-850nm	Optode14-730nm	Optode14-Ambient	Optode14-850nm	Optode15-730nm	Optode15-Ambient	Optode15-850nm	Optode16-730nm	Optode16-Ambient	Optode16-850nm
825.882896034772	156.811413429667	1397.05318543162	1357.94060460054	242.918326833699	2022.51743676244	847.56067352466	186.062310425726	1497.76180766411	1434.29576195154	156.6317088725	2019.75515825062	998.322585107552	175.350577515266	1879.38928472988	1153.21330919695	145.363016719226	1756.88046689478	1011.57698365592	144.661727206268	1996.27444263228	1201.49025444594	188.017727277756	1889.72256103797	820.572041238295	158.077579698651	1320.98256958283	1770.08860640815	202.993426599101	2620.95766531953	1012.204312463	203.868577583841	1764.8576171517	1349.6061654455	143.326895480039	1861.7356893768	884.304434788426	192.590046579951	1918.95656043548	1321.08276574224	132	2494.34781542524	885.18097073361	146	2027.84171335782	1041.38660677441	150.32819998526	1953.36762527222
825.516225053292	156.826011060119	1397.05907592498	1358.39024875974	243.586551505999	2023.13079667621	847.314664422817	186.16463362509	1497.75267179712	1433.48600424542	156.682878174875	2019.1856133074	998.12799081433	175.483603863772	1877.95597869387	1152.95646446734	145.44209736406	1755.14734093108	1010.95339487615	144.744042967079	1994.62955454029	1200.98447510977	188.042833722609	1888.3053776574	820.0177277376	158.13163707441	1320.22463386028	1769.33140900186	203.050807004213	2619.17983668233	1012.20081914833	204.030106468343	1764.90123664522	1349.02647488516	143.363016719226	1859.8923862724	884.426752468049	192.78045807117	1919.97914451305	1320.53014114996	132	2492.76732142262	885.501277095792	146	2028.77601302635	1041.35097673499	150.440770141163	1952.79467723205
825.105555359258	156.840728917759	1397.04842092911	1358.82477623582	244.306155071038	2023.75392067855	846.996571680617	186.28747653407	1497.61028165158	1432.51000616772	156.734546021615	2018.39351981189	997.845590490995	175.641459809738	1876.16266627154	1152.60950028914	145.527736154224	1753.27096512077	1010.04712796404	144.816687837942	1992.24505914155	1200.3582938189	188.088207426049	1886.52257160767	819.361314266891	158.200684106353	1319.09931970699	1768.57566079312	203.132684680567	2617.09639737985	1012.20759588262	204.218940440856	1764.78797046383	1348.49861503862	143.41137225229	1857.95056296225	884.5067238031	192.987184832356	1920.84617155603	1320.01937416563	132	2491.10063254163	885.810091398025	146	2029.56368098402	1041.37223442704	150.559229858837	1952.23510119956
824.700347902252	156.856433837474	1397.0214003852	1359.23829564027	245.035112429162	2024.28013675556	846.64076665741	186.422968394355	1497.30190154498	1431.54649605755	156.78352710875	2017.54066120989	997.514102028435	175.816514114655	1874.14162266532	1152.27333903093	145.61582444608	1751.47285776728	1008.88877089411	144.8760898261	1989.22838747357	1199.68239205371	188.161114154774	1884.54263427195	818.625701602848	158.281499058922	1317.69719747264	1767.8720997087	203.239147193451	2614.94682841938	1012.21399824938	204.422074448741	1764.55099240141	1348.08815153391	143.463326956678	1856.17495569207	884.488694335061	193.196301052989	1921.45669325077	1319.55571876314	132.001327222897	2489.49975078376	886.021665004483	146	2030.05605504135	1041.41042419966	150.673127237637	1951.69855300014
824.352720602914	156.874352818591	1396.970830816	1359.63454562553	245.732859516914	2024.60949607895	846.289081054406	186.563880111087	1496.80879023021	1430.7767545069	156.828979115151	2016.77438233314	997.164180265163	176	1872.02818650411	1152.02963884698	145.701035521183	1749.92974822482	1007.52619528943	144.921115796128	1985.7411439051	1199.01775211263	188.267297050918	1882.53338609794	817.840396104608	158.367863412439	1316.13649298113	1767.25415927818	203.36892343645	2612.94912300751	1012.19921406052	204.628123985285	1764.21158564978	1347.82365541584	143.513516353713	1854.75867121099	884.317482147523	193.394596233746	1921.71113299474	1319.12069304234	132.004650252251	2488.0667271855	886.048594722436	146	2030.100999754	1041.41974597142	150.774209448794	1951.18999120927
824.109412575404	156.894267536593	1396.90390018393	1360.02565747486	246.367040184	2024.69285988579	845.985669269158	186.705333232848	1496.15177610324	1430.35287393189	156.86916109174	2016.22766019302	996.818125306615	176.183485885345	1869.95162142923	1151.93189597071	145.779310133781	1748.75441718282	1006.02434809287	144.953299073663	1981.99496298638	1198.41256383339	188.409102713265	1880.64541675289	817.039395310038	158.453046962692	1314.54787437993	1766.73812638415	203.518327122139	2611.26010059979	1012.13843874195	204.826962319332	1763.77548374578	1347.69584572937	143.559229858837	1853.78386468601	883.953134490731	193.570463811809	1921.54067470324	1318.67663659216	132.011749802608	2486.84674026606	885.82199672819	146	2029.59013182541	1041.35847984206	150.856613122982	1950.71652204606
824.004283622633	156.916269102915	1396.83983705696	1360.43185628989	246.91573029839	2024.53591804728	845.77005944254	186.84336237419	1495.39512584554	1430.36901816405	156.904519300307	2015.98505029439	996.488151482731	176.359867413159	1868.03560787289	1151.99040044392	145.847116177518	1747.99420057432	1004.46160262058	144.976220778044	1978.24574959677	1197.8942091695	188.584157018181	1879.00731533042	816.267048858579	158.53132157529	1313.06527955105	1766.33933459219	203.684467255634	2609.97425164382	1012.01790160357	205.011923525895	1763.25293358408	1347.67610840797	143.601708247984	1853.23930951556	883.386041352615	193.717085942745	1920.94151122163	1318.18350233894	132.025106444853	2485.84823799113	885.315451362526	146	2028.50540881193	1041.2008315676	150.917770049098	1950.30088885743
824.053517729181	156.940170296781	1396.81142231894	1360.87191886469	247.371596960651	2024.19955076603	845.67398557188	186.976220778044	1494.64305239534	1430.85316480585	156.93552004453	2016.08517636253	996.18754833058	176.523700834272	1866.40268691879	1152.18546074263	145.901986826423	1747.64428324437	1002.94277386942	144.994227672539	1974.79857031552	1197.48024121969	188.785020410043	1877.72651817906	815.570195464965	158.599155143877	1311.82103639993	1766.07296977029	203.862416874843	2609.153423996	1011.84262644805	205.178812915418	1762.68775218312	1347.72991251228	143.643732729626	1853.07176657474	882.649085474171	193.832833901026	1919.99549770428	1317.6250198557	132.045373703441	2485.08303502411	884.56275786528	146	2026.95036090648	1040.94996085806	150.958493500288	1949.99223402771
824.258187844945	156.965254023958	1396.86415649951	1361.36635620698	247.738905898893	2023.78866625948	845.718593156943	187.104164372012	1494.02985162377	1431.77785696201	156.963926801061	2016.52603358356	995.936694892594	176.673127237637	1865.17272525321	1152.47994432823	145.942876493951	1747.677320895	1001.59406514385	145.011749802608	1971.98895161399	1197.18110436331	189	1876.89191825058	814.990749561136	158.657076954018	1310.93154626092	1765.95270236489	204.049220982368	2608.83801451156	1011.6372176688	205.327684135624	1762.16412941644	1347.83056329027	143.690085922551	1853.22356139352	881.808781859439	193.922420301349	1918.85339943398	1317.00757869314	132.074233951621	2484.57696408377	883.644445272582	146.001327222897	2025.12650503376	1040.62787700703	150.982272722244	1949.85089999881
824.602658273602	156.992620832903	1397.04559301888	1361.92263487486	248.033338484658	2023.42300831607	845.913402128335	187.228859588786	1493.69297161918	1433.06788749674	156.992620832903	2017.28145135315	995.762988812374	176.808411250461	1864.45618842587	1152.83984822837	145.970243302896	1748.07243858457	1000.54875343659	145.034201801667	1970.13540210463	1197.00948684728	189.214979589957	1876.58176554498	814.558817947296	158.707440711392	1310.48180852312	1765.99248018508	204.241042668676	2609.06784986652	1011.4450331225	205.460426129789	1761.79923738742	1347.97176344171	143.742969735956	1853.66808606817	880.953568518696	193.995349747749	1917.68638961549	1316.3684056655	132.112160371292	2484.35998619019	882.674600082565	146.004650252251	2023.27243061105	1040.2743337298	150.994022524852	1949.92220500451
825.059708574997	157.025106444853	1397.39417660604	1362.53489163523	248.274883762229	2023.20997474871	846.251466783795	187.353716214724	1493.74321728488	1434.61918713959	157.023779221956	2018.31241749827	995.694411362069	176.932865598736	1864.31301635896	1153.24645378516	145.986922974495	1748.80240411193	999.916342684168	145.064502673146	1969.4556422058	1196.97902854648	189.417170204716	1876.83521555182	814.282334231661	158.755263712939	1310.50136441465	1766.18652642878	204.436119888913	2609.85053246126	1011.3072345472	205.582467606192	1761.70471264459	1348.15415035182	143.80315747241	1854.39261123409	880.167306717366	194.063175450249	1916.62782565461	1315.75938082211	132.159532940102	2484.43539051307	881.766973555921	146.013077025505	2021.58750234523	1039.93086291307	150.998672777103	1950.21192193823
825.583343622257	157.065829896043	1397.90812372046	1363.16425141775	248.485588925678	2023.19657362346	846.703356814311	187.481926869636	1494.22562401121	1436.2854746578	157.059852420895	2019.54199320992	995.746869672077	177.049407123508	1864.73709030773	1153.70038231241	145.995349747749	1749.8410872713	999.749643951315	145.101880377306	1970.0086396052	1197.10141828927	189.595547538986	1877.65824117018	814.14355528008	158.805188552339	1310.94316624943	1766.50536741924	204.631982927018	2611.12150479295	1011.2520367805	205.700491346808	1761.93178271825	1348.37973570981	143.868468819043	1855.35511407993	879.507924689346	194.138736624767	1915.70391241298	1315.22625373743	132.216560804629	2484.7143018985	881.002990167477	146.029756697104	2020.13967048918	1039.62697611749	151	1950.64428666326
826.109056371168	157.116953209268	1398.50846655634	1363.73642244208	248.680907789408	2023.32669849456	847.213768017216	187.616353364885	1495.07925739994	1437.87965025734	157.100553154409	2020.80859449279	995.910138520169	177.160504829538	1865.61427079315	1154.20998146245	145.998672777103	1751.12370485264	1000.01657068609	145.143560600305	1971.62679940336	1197.37745294497	189.74445275169	1878.99130344657	814.100312202979	158.859691671126	1311.67691082632	1766.89139747269	204.825917584519	2612.71901337497	1011.2789688175	205.820383356211	1762.43355850354	1348.63869130484	143.934192821633	1856.44889123882	878.987630483232	194.22911358056	1914.80740985455	1314.78865606802	132.281766119866	2484.99049323067	880.411208202822	146.057123506049	2018.83093863802	1039.3717077398	151	1951.06427507501
826.550353978269	157.179089624869	1399.01410521478	1364.13911247647	248.869585332032	2023.41696524305	847.701054041909	187.758413156949	1496.12237908973	1439.16255737674	157.143560600305	2021.81333439862	996.134367028212	177.268422033417	1866.70583728782	1154.76421469202	146	1752.50509695906	1000.58701523685	145.183485885345	1973.90811051399	1197.78016472953	189.862665067182	1880.69209369915	814.091394100113	158.918024040873	1312.49729023646	1767.25955903392	205.014455999779	2614.3712307719	1011.3533059393	205.947259547316	1763.04492240684	1348.89616085838	143.995327030073	1857.47626425906	878.578572029904	194.338622564971	1913.7160034319	1314.43907008852	132.352388991828	2484.94015011198	879.96855684828	146.098013173577	2017.41877311854	1039.16039419414	151	1951.25566611339
826.802782444412	157.249315781388	1399.13625661561	1364.23560128967	249.050534005892	2023.16083266248	848.065242253258	187.907349369272	1497.05500189265	1439.84768970386	157.183485885345	2022.09377378308	996.331505808241	177.3736357399	1867.66698150001	1155.30966678573	146	1753.73479588913	1001.2505980757	145.214979589957	1976.27114755936	1198.24735239301	189.952516025141	1882.53290687662	814.047266216947	158.976220778044	1313.15536998897	1767.50724080688	205.193218892134	2615.72444017979	1011.41418942858	206.083201840338	1763.50245764398	1349.08666852842	144.046874649624	1858.15704947749	878.22062252364	194.46454936312	1912.15215063921	1314.139625408	132.423042863408	2484.1709424113	879.615770769024	146.151556599585	2015.58902745023	1038.97910616806	151	1950.98943109344
826.756887649582	157.322837442411	1398.51091804215	1363.88688788146	249.215951479393	2022.17249889655	848.201378445263	188.061156926116	1497.49914188721	1439.63574777129	157.214979589957	2021.055936902	996.383950002615	177.475498961751	1868.08746804806	1155.73593750033	146	1754.45633457477	1001.75283790929	145.232357096474	1978.05038068327	1198.67838282649	190.018323203508	1884.21096418649	813.900976682729	159.028175482432	1313.39015011836	1767.529778603	205.357218529586	2616.38047103322	1011.38534401202	206.226741810419	1763.48050439052	1349.11840100162	144.084682156298	1858.15365712623	877.848622247413	194.601280532923	1909.85816537624	1313.83469838456	132.486229654513	2482.29378740225	879.284773560727	146.214712391071	2013.0461349077	1038.81748130155	151	1950.06890847482
826.320934509959	157.393644974534	1396.77762135443	1362.98620392729	249.353089734035	2020.07605222473	848.022771296953	188.215777756107	1497.07490199184	1438.27582990368	157.232357096474	2018.09783002771	996.1684723933	177.57204502648	1867.56167600031	1155.88719452421	146	1754.25372382155	1001.84924953285	145.232357096474	1978.62595969478	1198.94667147704	190.064676396433	1885.38631580761	813.59756179782	159.069850898257	1312.98151481107	1767.23853502172	205.501564878187	2615.98692606844	1011.19423882533	206.374962962797	1762.67159135908	1348.88504660632	144.107919903653	1857.14988607048	877.409143167146	194.740261638901	1906.68353372124	1313.46029675281	132.533594495179	2479.0267978127	878.919354284012	146.282564423958	2009.61469671812	1038.6711503476	151	1948.38654437825
825.447864862187	157.45734948153	1393.67218743484	1361.49231791325	249.450856156747	2016.60303353799	847.483620138236	188.366448276164	1495.48391466799	1435.63862268851	157.232357096474	2012.7685627747	995.589331684581	177.66163929289	1865.77683835467	1155.60186309477	146	1752.7521699182	1001.36303947475	145.214979589957	1977.55151382792	1198.93016755198	190.096431958906	1885.75037400206	813.10320663101	159.098003525071	1311.78256713148	1766.58087584217	205.623455822532	2614.30022741756	1010.78977734727	206.523156659897	1760.84985381006	1348.2962091012	144.117132494776	1854.91757830972	876.880255044326	194.874340400738	1902.63437555319	1312.96661775156	132.557648644165	2474.281068491	878.497922562939	146.348646529356	2005.30142688082	1038.54625447646	151	1945.95517440165
824.157663140856	157.512189130816	1389.12021260423	1359.4546871232	249.50171797125	2011.68278340292	846.595445035274	188.507966593627	1492.59330265239	1431.78009510501	157.214979589957	2004.93285194442	994.607510036268	177.744130880457	1862.59459715085	1154.76795803369	146	1749.72931937097	1000.22629837586	145.183485885345	1974.64779020385	1198.54819223434	190.118547631051	1885.09863186598	812.412118960702	159.1138973788	1309.75289255846	1765.5610317487	205.72175335045	2611.26050675085	1010.15774835361	206.66574807054	1757.93658469434	1347.30542506964	144.113897378801	1851.38969676234	876.27735876026	194.999201833851	1897.89673328322	1312.32754047702	132.554846805472	2468.21171205503	878.036523139156	146.40776117263	2000.32540347018	1038.45574031908	151.001327222897	1942.91939712329
822.549464523636	157.559229858837	1383.29776580909	1357.02349117346	249.504633915766	2005.50188537193	845.436451373271	188.63520562514	1488.4902891609	1426.96927156165	157.183485885345	1994.88119755703	993.26000788336	177.821599948054	1858.0986314724	1153.37030329706	146	1745.20258528776	998.499325122788	145.143560600305	1970.04360748775	1197.78993411818	190.136186995429	1883.39050485522	811.547971840348	159.120211180862	1306.97363433877	1764.24166114324	205.799222418047	2607.02588052417	1009.3276879151	206.79798867075	1754.03768874122	1345.92838742576	144.101082211157	1846.70174159287	875.656514387662	195.113897378801	1892.82349720587	1311.55921904215	132.524893667406	2461.23169407357	877.592755429515	146.45734948153	1995.10497000173	1038.42053443073	151.004650252251	1939.5481025607
820.793742144247	157.601708247984	1376.63872003122	1354.43195843807	249.466577328224	1998.50802625728	844.139539598091	188.743781109217	1483.49141373486	1421.6601075475	157.143560600305	1983.34514987187	991.662220966937	177.898917788843	1852.60911900015	1151.51870783313	146	1739.48142940769	996.360182717935	145.103207600203	1964.15659289832	1196.73105885406	190.156731101409	1880.78537601408	810.5655820491	159.121799902481	1303.64701639449	1762.74724198316	205.862061541382	2601.97513682917	1008.37291974919	206.917792766774	1749.44818864444	1344.25906474995	144.082403674188	1841.19059448	875.107896700405	195.220340094979	1887.88219427121	1310.72941454313	132.474293710764	2453.95087001591	877.258829849388	146.49807293272	1990.19540798805	1038.46937872438	151.013077025505	1936.19198393243
819.105404938463	157.643732729626	1369.77487475085	1351.96417321617	249.400590864349	1991.34747139306	842.87275887338	188.830716122659	1478.10132642406	1416.41894443067	157.103207600203	1971.39424121604	989.992497693087	177.982098998958	1846.63851386008	1149.44310471844	146	1733.13181131689	994.071547852577	145.070480148294	1957.61892568659	1195.52759934799	190.189289637206	1877.6260024905	809.547149887888	159.123641075129	1300.07532701393	1761.24630524385	205.917596325812	2596.65477767706	1007.40458969413	207.024300678655	1744.61732223118	1342.45978791443	144.061156926116	1835.34931062713	874.745655519146	195.321960652251	1883.59104125854	1309.95428413283	132.412076109322	2447.08918217859	877.152034879785	146.533420771892	1986.21205267645	1038.63896578831	151.029756697104	1933.23902485197
817.702442158979	157.688758699654	1363.44035064525	1349.89720998026	249.326872762363	1984.77418617168	841.805476048332	188.897336574172	1472.93789808475	1411.81218689998	157.070480148294	1960.26068709346	988.462289267602	178.076252475754	1840.82181869769	1147.45267090978	146.001327222897	1726.89431543348	991.930464772145	145.05325630232	1951.1792507624	1194.3872362434	190.243517828962	1874.39514259126	808.593280533407	159.129104600526	1296.61900903379	1759.92681430578	205.975699321345	2591.691313016	1006.55571978777	207.119781378349	1740.08195911107	1340.7367699909	144.04072345119	1829.74618598121	874.690452571412	195.423304721269	1880.43236626901	1309.38181696543	132.350916541954	2441.32947273172	877.39529020974	146.568459605414	1983.71747401236	1038.968044801	151.058450728946	1931.03176059416
816.767168292006	157.738319483705	1358.33455531417	1348.45940755804	249.267297050918	1979.50464871932	841.083569435493	188.947526746202	1468.61976005337	1408.30289914315	157.05325630232	1951.10254199267	987.277348724938	178.18373987712	1835.81078889414	1145.87180448739	146.005977475148	1721.55080233097	990.216078507862	145.057906554571	1945.58170204686	1193.52493945075	190.328453977034	1871.6250447474	807.809653873786	159.141261487972	1293.64038110121	1758.96858495561	206.046156751962	2587.67756361713	1005.96367135972	207.207265107301	1736.3775228462	1339.31487867175	144.023779221956	1824.92694026949	875.052013901752	195.527824067603	1878.78976152042	1309.16617661318	132.303627148921	2437.20782723946	878.097903454828	146.608109963424	1983.13388591025	1039.4901444798	151.102663425828	1929.81760871171
816.41284096433	157.791407669802	1354.99123710547	1347.79059049249	249.243344105675	1976.09043229577	840.802418153458	188.987970580652	1465.66027344284	1406.16699835088	157.057906554571	1944.77736108398	986.605397941801	178.303093540407	1832.16794770551	1144.96981803735	146.017727277756	1717.77246507474	989.150035206941	145.088207426049	1941.46072094553	1193.12052917327	190.449826164455	1869.80016931528	807.291872945656	159.16250342887	1291.45570771763	1758.51892725722	206.136007709921	2585.09743529235	1005.75057570463	207.292559288608	1733.96266838351	1338.39947220921	144.011749802608	1821.35402655361	875.912687821587	195.638114062708	1878.89363304658	1309.44693074492	132.279591027901	2435.029805851	879.33783525625	146.655482532234	1984.67339084147	1040.23216303026	151.16463362509	1929.70742844182
816.662112614731	157.844689597087	1353.68699332249	1347.91842472168	249.271773579882	1974.81891975079	840.994857521464	189.028429474207	1464.3758335096	1405.45435518441	157.088207426049	1941.69061146549	986.550686903645	178.429020338555	1830.2809856224	1144.90473595271	146.041506499712	1715.99508363047	988.869236778517	145.144714099915	1939.26372763004	1193.27762452235	190.607936240138	1869.26337012553	807.108264620583	159.193590118217	1290.28929259095	1758.66003194844	206.249569773162	2584.25245071868	1006.00058233007	207.380394225742	1733.14559210941	1338.13678578209	144.004650252251	1819.34519125178	877.312375024948	195.755357188539	1880.80283294622	1310.32206827348	132.284648364989	2434.85161282721	881.141249323644	146.710786458422	1988.31292702386	1041.20733964904	151.244469088175	1930.67351225811
817.450904052711	157.893469370443	1354.3908449803	1348.76976068119	249.362604027325	1975.66085823158	841.630615228297	189.077579698651	1464.82978478564	1406.00167884706	157.144714099915	1941.72024990423	987.137343722741	178.554579606586	1830.28766539005	1145.68271475968	146.080902728005	1716.31709159647	989.410326409291	145.225790551206	1939.1734174836	1194.00103121455	190.795442989754	1870.13295396261	807.288381000189	159.234832256759	1290.23599022272	1759.39615885675	206.386725183258	2585.21404028073	1006.74631127741	207.475874925436	1734.03125302853	1338.5864045461	144.001327222897	1819.02638114526	879.235172660037	195.880218621652	1884.40088278106	1311.82592788905	132.320037503602	2436.5031210026	883.469095996814	146.771140411214	1993.80249646639	1042.41077361433	151.339687930007	1932.57545555524
818.644213137656	157.934170103957	1356.80037926489	1350.18906209933	249.51774361424	1978.30329847673	842.623581370675	189.142059654121	1466.83646560932	1407.48931036258	157.225790551206	1944.29887173654	988.311302896942	178.67180001474	1832.07404981036	1147.16740968085	146.138736624767	1718.49094764778	990.712889054296	145.326872762363	1941.10177372546	1195.20103935371	191	1872.28482626446	807.81974977509	159.284822088276	1291.25466000646	1760.65021404397	206.541323295573	2587.82034646535	1007.96182783323	207.582031629135	1736.50382308579	1339.70299301785	144	1820.31799461026	881.610117498206	196.011749802608	1889.4076933465	1313.92578646919	132.379328860706	2439.63705446402	886.219412457502	146.831332954842	2000.69726354814	1043.82469558862	151.445332480036	1935.19544763648
820.067864357179	157.964470975436	1360.40766548251	1351.97816725394	249.730988896463	1982.21564273247	843.850641354608	189.225790551206	1469.99598561421	1409.52106680137	157.326872762363	1948.54110984956	989.950566031707	178.775536671691	1835.28111722284	1149.10483307252	146.214040748598	1721.96071391056	992.623939334755	145.440770141163	1944.68232148269	1196.70771917927	191.204557010246	1875.36050961222	808.647055454709	159.342142035288	1293.17204005481	1762.2663874756	206.702790459141	2591.68341830856	1009.55735583799	207.701835725159	1740.23578578277	1341.33442287048	144	1822.92149958493	884.305711159546	196.148210852555	1895.4099309145	1316.50036451587	132.454912531704	2443.78641049708	889.223460953528	146.886369820086	2008.4144870177	1045.40319883498	151.554667519964	1938.27724265148
821.539751816804	157.983599945141	1364.6201537	1353.93143468432	249.991420492821	1986.77398397452	845.172267344932	189.326872762363	1473.78551574428	1411.70752591761	157.440770141163	1953.46740804581	991.884245330639	178.86259059813	1839.38208761829	1151.18597093933	146.303093540407	1725.98963212414	994.921017441494	145.559229858837	1949.32960476653	1198.31284454509	191.392063759863	1878.84640090648	809.682391438703	159.403123338233	1295.70880625463	1764.03658047584	206.856613122982	2596.24591865648	1011.39297084955	207.834427533551	1744.73531432184	1343.24901198828	144	1826.35805339037	887.141927726918	196.286693485548	1901.90276202883	1319.35208092757	132.535992111481	2448.43044176244	892.266759394351	146.930847074603	2016.30171977026	1047.07381712257	151.660312069993	1941.5603472218
822.904963576276	157.994022524852	1368.86146856291	1355.87226772034	250.284508479038	1991.36290385851	846.457279443272	189.440770141163	1477.65207178112	1413.73980543738	157.559229858837	1958.18054780678	993.924911254086	178.935497326854	1843.771998072	1153.11101788364	146.400046689974	1729.80129556098	997.347729980501	145.673127237637	1954.34192450735	1199.81199898427	191.550173835545	1882.17222692602	810.820224636117	159.463342074305	1298.52750671483	1765.73506608163	206.989189038751	2600.86023714793	1013.29995221033	207.977018944193	1749.43018314795	1345.17787758738	144	1830.03670863925	889.915357433095	196.424370086305	1908.35780509872	1322.2346990846	132.613291972196	2453.0618731944	895.120462578496	146.963143752539	2023.73448827551	1048.74425783513	151.755530911825	1944.81236442731
824.05249741605	157.998672777103	1372.66663855158	1357.67213170742	250.596962896457	1995.47686500878	847.602110698587	189.560557081733	1481.11744993536	1415.4226724172	157.673127237637	1962.01529518976	995.894533180104	179	1847.88319422538	1154.64303773374	146.49807293272	1732.73823382733	999.655601364569	145.774209448794	1959.03721534534	1201.04214901765	191.671546022966	1884.83299632119	811.95387313703	159.518506407647	1301.28997830583	1767.1551580579	207.090297442353	2604.9017878547	1015.11163054843	208.124861433113	1753.77323001084	1346.86477216801	144	1833.35816085377	892.426837811117	196.559229858837	1914.30085883927	1324.88467502289	132.68074554492	2457.24787760012	897.574819312527	146.984927168038	2030.2027316664	1050.30597478927	151.83536637491	1947.84961250115
824.927958861595	158	1375.73111647829	1359.25825573959	250.918239488382	1998.77196503928	848.544611021338	189.679104712785	1483.8487102874	1416.68409021102	157.774209448794	1964.60580723828	997.653597724409	179.064502673146	1851.27913203404	1155.64737926109	146.590723563449	1734.38281032218	1001.6495271887	145.856613122982	1962.88416352519	1201.91076057099	191.756482171038	1886.48774012658	812.99010880397	159.565619156423	1303.70900420859	1768.14943606087	207.156104620719	2607.87029218434	1016.69278831069	208.271755362594	1757.33164533837	1348.11740249554	144	1835.82066369803	894.520308083368	196.689527292496	1919.37027974911	1327.07618904672	132.735097436899	2460.67573828345	899.480253778414	147	2035.3704983421	1051.65858078981	151.897336574172	1950.54480246544
825.526490693183	158	1377.93049449081	1360.60822564587	251.24457390463	2001.09398100722	849.267833400468	189.791936726549	1485.70095851042	1417.55598056651	157.856613122982	1965.89165107897	999.115007725685	179.13740940187	1853.72878409617	1156.09844654813	146.673127237637	1734.61943245388	1003.21641416159	145.917770049098	1965.60721750652	1202.39962955011	191.812037585691	1887.02300224183	813.864668004208	159.603805396128	1305.59687511631	1768.65684375704	207.191200368001	2609.487681564	1017.96660831466	208.412323511502	1759.86452321679	1348.84129277631	144	1837.12255895789	896.108759379145	196.815715948505	1923.37582737563	1328.66639212532	132.776741922678	2463.19887428646	900.771600823361	147.016400054859	2039.12674854641	1052.73000945804	151.941549271054	1952.84380895093
825.88530660958	158.001327222897	1379.30474044313	1361.74078458818	251.578372272867	2002.46645950622	849.796534682179	189.898119622694	1486.7163996559	1418.14053109993	157.919097271995	1966.06877962237	1000.25173143733	179.225790551206	1855.22104871371	1156.06881651306	146.744042967079	1733.62823824749	1004.33582892983	145.958493500288	1967.20761002668	1202.56079813923	191.849246373738	1886.56036244826	814.545309557293	159.634529175493	1306.88334937221	1768.70533780113	207.208592330198	2609.73594867066	1018.92165024579	208.542493477064	1761.34351797523	1349.04641817856	144	1837.20719197529	897.183753687731	196.940170296781	1926.29096360614	1329.61561760164	132.808004165623	2464.81585926031	901.472691172075	147.041506499712	2041.55289536351	1053.4889986611	151.971570525793	1954.74511695032
826.066801131165	158.005977475148	1380.01469826614	1362.70247849945	251.928936343808	2003.05443548936	850.184135866339	190	1487.08106098054	1418.57292686702	157.964470975436	1965.49246014206	1001.08598076237	179.332850237511	1855.93301528684	1155.6970401153	146.803960583676	1731.81405799939	1005.05959744044	145.982272722244	1967.9084240912	1202.49350578458	191.881540282327	1885.40736895289	815.031335960072	159.661110236143	1307.60844013896	1768.40195467981	207.224463328309	2608.83162236801	1019.60413951593	208.66163929289	1761.92313447388	1348.83552599558	144	1836.24829407091	897.807981607666	197.067134401264	1928.22813493108	1329.9839507877	132.832302144505	2465.64751588944	901.682123716349	147.082229950902	2042.87600557047	1053.94948162082	151.991573226746	1956.28832273823
826.14066793258	158.017727277756	1380.28820544808	1363.55019441256	252.309347725005	2003.10968902066	850.495965361976	190.103207600203	1487.06476573751	1418.98186643942	157.998672777103	1964.57343179535	1001.67453785143	179.458497418919	1856.15948667876	1155.14477200501	146.857673146993	1729.6858740195	1005.48108438246	145.994022524852	1968.05694486978	1202.31225280573	191.922958868661	1883.96929619378	815.349159579507	159.688758699654	1307.90372786928	1767.9027748741	207.257017056932	2607.18432902861	1020.09942068362	208.77500965277	1761.89357543792	1348.36921596147	144.001327222897	1834.6063224196	898.091488443049	197.20201132925	1929.3917885564	1329.90525787387	132.85311080812	2465.89053209834	901.54136635888	147.143386877018	2043.40142147007	1054.16245122257	152.008426773254	1957.54069730706
826.170158874859	158.041506499712	1380.363980461	1364.34135423804	252.733521370347	2002.91424486486	850.791721122051	190.214040748598	1486.95053486812	1419.46523419563	158.030878772314	1963.68348134619	1002.09075053856	179.600736358548	1856.20873753418	1154.5615531103	146.910947208191	1727.71353552718	1005.70359253169	146	1967.99341288422	1202.123943754	191.985797991996	1882.63081934251	815.536990793809	159.720941977189	1307.95455222527	1767.36132454767	207.320049921456	2605.28697672256	1020.49976377957	208.89075287345	1761.59911642899	1347.81233570799	144.004650252251	1832.72821281806	898.163123980716	197.351979207216	1930.01492505093	1329.54788226844	132.873025595694	2465.75637386101	901.202796918459	147.225790551206	2043.43339143052	1054.20324275064	152.028429474207	1958.57244072316
826.201962647417	158.082229950902	1380.44651143602	1365.12210451628	253.21317762396	2002.72538809065	851.113166151248	190.338622564971	1486.97543965589	1420.07507083627	158.069152925397	1963.09405894925	1002.40598231812	179.755357188539	1856.3390324091	1154.05740240312	146.968742356713	1726.23093789873	1005.81009151246	146.005977475148	1967.97140111481	1202.00413368295	192.078710480585	1881.67845140157	815.637337566572	159.75991396519	1307.95329445406	1766.89918182772	207.420852515873	2603.60063408434	1020.88474100329	209.018525443905	1761.35949195843	1347.29553472774	144.013077025505	1831.03203877766	898.141154076008	197.523000092065	1930.3191529171	1329.06561504508	132.894267536593	2465.43093374004	900.795568939341	147.326872762363	2043.23242611382	1054.14549041577	152.058450728946	1959.4490399033
826.260352493508	158.143386877018	1380.68168540692	1365.92120290962	253.754223944044	2002.74138400051	851.476819822537	190.482276640875	1487.29447335045	1420.82006877776	158.119607655062	1962.95725346849	1002.67940914709	179.918923548709	1856.7049871661	1153.6947664331	147.035529024564	1725.38355194674	1005.854212935	146.017727277756	1968.11290469903	1201.99142396232	192.207467347699	1881.24728003789	815.686743527512	159.804764312047	1308.06838446721	1766.57699576956	207.561160844747	2602.47537505862	1021.30463051155	209.167166098974	1761.4195090707	1346.88856097897	144.028429474207	1829.8321455684	898.117336901997	197.719016790713	1930.47641725754	1328.57054318199	132.916269102915	2465.02452898828	900.41094073785	147.440770141163	2042.97140141189	1054.04824694605	152.102663425828	1960.20230230067
826.347996836683	158.225790551206	1381.15201047517	1366.74555746312	254.35617611944	2003.08813019026	851.873716195089	190.646110061989	1487.97114953191	1421.66792511479	158.185067100016	1963.32062586515	1002.95136805893	180.088381149336	1857.35708532043	1153.48931551677	147.112160371292	1725.14708915287	1005.86136696211	146.041506499712	1968.42853104463	1202.08660377439	192.374356737222	1881.32966338027	815.709526463668	159.853116370342	1308.40828035772	1766.39370887246	207.735818434222	2602.07973458493	1021.77534974129	209.343295534898	1761.9071105042	1346.5998394867	144.053800476695	1829.27420064691	898.146151483852	197.940424288555	1930.60102922303	1328.11410781606	132.938843073884	2464.56693242936	900.095267310812	147.559229858837	2042.73794362669	1053.93886652632	152.16463362509	1960.82916863394
826.456059461668	158.32819998526	1381.87935157525	1367.59253766707	255.010904436849	2003.81422342572	852.28089158478	190.82959114016	1488.98903225529	1422.57199330478	158.265715836247	1964.1516514211	1003.24524514312	180.262370089217	1858.26456117788	1153.42837454615	147.196910644262	1725.38409989597	1005.84232886575	146.082229950902	1968.86401065293	1202.26785631713	192.578105073981	1881.81402010196	815.721038152562	159.902769874945	1309.01826599318	1766.31083643112	207.936650826464	2602.41123484802	1022.2901709855	209.548083819242	1762.84207571427	1346.40009437062	144.09091362322	1829.35167665734	898.249959771238	198.183312162058	1930.75483752048	1327.69456967512	132.95927654881	2464.02252488625	899.856152193077	147.673127237637	2042.54970084746	1053.81285834938	152.244469088175	1961.2913520053
826.568573898806	158.446747616311	1382.83989071527	1368.44600336566	255.703943958751	2004.90128282079	852.669293920869	191.029756697104	1490.27172865615	1423.47653775738	158.359693689872	1965.36250026902	1003.57098732714	180.440770141163	1859.3485650094	1153.48063949188	147.287214676209	1725.91223412667	1005.80393738265	146.143386877018	1969.35053732709	1202.50020964979	192.814777107146	1882.53955177745	815.726371191676	159.95322460461	1309.87824175259	1766.27246592605	208.155403878512	2603.33399792257	1022.82658876359	209.778968465842	1764.15442405337	1346.24429044362	144.140854403134	1829.94244481543	898.425276553848	198.440770141163	1930.96051843965	1327.27818539241	132.976220778044	2463.31654144222	899.678873157484	147.774209448794	2042.3806029444	1053.64345213606	152.339687930007	1961.52504713297
826.670114738661	158.575629913695	1383.9660422702	1369.28732832089	256.41566369631	2006.26848787807	853.014355496976	191.241936614291	1491.70556268678	1424.33199043831	158.462797899931	1966.81990325204	1003.92495467512	180.623732531983	1860.51684735018	1153.60491674759	147.379525301669	1726.55457150227	1005.75493046489	146.225790551206	1969.84705361956	1202.74249036218	193.077579698651	1883.34124346819	815.726371122104	160.005977475148	1310.91511029949	1766.22788456899	208.385502776817	2604.62137874436	1023.35965169871	210.029756697104	1765.71150090336	1346.09653662188	144.203745636985	1830.85423371039	898.656496268672	198.704117682038	1931.23056251825	1326.82475518523	132.988250197392	2462.38887989253	899.539281201543	147.856613122982	2042.20445242393	1053.3936142906	152.445332480036	1961.47404515324
826.751461329757	158.708656262201	1385.16155528797	1370.10215820982	257.125035156399	2007.79345378655	853.302529110916	191.46120361609	1493.16590631707	1425.10158022215	158.570979661445	1968.36297620197	1004.29349135371	180.810536639507	1861.67345604446	1153.75556555654	147.470936622879	1727.16131345211	1005.70914090656	146.326872762363	1970.33912170777	1202.95736778976	193.357039244078	1884.07428965188	815.718908025915	160.065829896043	1312.02391101434	1766.14667701699	208.620474698331	2606.01758052628	1023.86916399903	210.292559288608	1767.35429450213	1345.93714237066	144.278531003891	1831.87632509405	898.928807468446	198.963143752539	1931.57349513959	1326.31566632939	132.995349747749	2461.21960429176	899.421779716179	147.917770049098	2042.00965867568	1053.04062893364	152.554667519964	1961.10617294934
826.804134306963	158.83871212194	1386.30800243039	1370.87169359983	257.809129148123	2009.32323203682	853.529122773389	191.682356984215	1494.52717313314	1425.75306095791	158.679528953077	1969.80502802628	1004.6531039522	180.998672777103	1862.72340493121	1153.88462390336	147.559229858837	1727.61266948179	1005.67719861642	146.440770141163	1970.82394475226	1203.10976977739	193.641633533025	1884.62273177312	815.704684574089	160.13740940187	1313.08594761356	1766.01815258527	208.856345924096	2607.27173492925	1024.34279969299	210.55790263594	1768.91672670568	1345.76094303572	144.362928805848	1832.80435172312	899.234610651115	199.210329337707	1931.99376743826	1325.76396204491	132.998672777103	2459.83330296865	899.324184633585	147.958493500288	2041.80008514881	1052.5859475453	152.660312069993	1960.42689215386
826.819637207476	158.958493500288	1387.27026588911	1371.57742388374	258.447932612183	2010.68828990027	853.694850243416	191.899869048056	1495.66700396013	1426.2547261349	158.783439195371	1970.94092850847	1004.96735660137	181.184813108242	1863.56843067758	1153.94081795491	147.641633533025	1727.80571768177	1005.65220440484	146.559229858837	1971.27283507842	1203.16436940716	193.917770049098	1884.89652077322	815.684472211381	160.224463328309	1313.98877263714	1765.8465092578	209.089782841286	2608.17279535018	1024.77421255345	210.816687837942	1770.24969908813	1345.56973509175	144.453585308807	1833.46158127687	899.574589314794	199.439622203775	1932.48957749479	1325.2136189647	133	2458.30189786396	899.25772934753	147.982272722244	2041.59329567905	1052.06186262712	152.755530911825	1959.4909414548
826.790525080207	159.061330649403	1387.92653311786	1372.20136247631	259.023758966841	2011.73669963835	853.802697085281	192.107919903653	1496.48347482703	1426.58388320938	158.877844764058	1971.58866245719	1005.19438849417	181.363190442512	1864.11016477864	1153.88097162829	147.716906657237	1727.65401066867	1005.60702608041	146.673127237637	1971.60935904243	1203.09613445209	194.173473090245	1884.82940505147	815.663484310149	160.326872762363	1314.64349172604	1765.64606400512	209.316859967263	2608.5639806499	1025.16090041478	211.060902934342	1771.23252733767	1345.36631640939	144.546414691193	1833.70647942953	899.954290908701	199.648020792784	1933.03244040311	1324.72747165861	133	2456.69880476271	899.242137893859	147.994022524852	2041.39062472606	1051.5272216188	152.83536637491	1958.37638544543
826.705203423676	159.141979385633	1388.17842161118	1372.72069265867	259.523560645074	2012.34724940492	853.850782548113	192.300618380121	1496.89296321596	1426.71432222308	158.958493500288	1971.6046514639	1005.29380816597	181.53080038463	1864.25534132746	1153.67654557995	147.783439195371	1727.08927286958	1005.49441758686	146.774209448794	1971.70931233793	1202.88846779514	194.39944292696	1884.37994750598	815.648818296987	160.440770141163	1314.99828763719	1765.43302396807	209.534123413984	2608.36145661462	1025.50084118109	211.285633461537	1771.79075466506	1345.14915313901	144.637071194152	1833.44472013105	900.3776097637	199.83536637491	1933.57128693619	1324.36336410852	133.001327222897	2455.08081809416	899.294355161531	148	2041.1772210526	1051.04936613126	152.897336574172	1957.17395358503
826.55369049304	159.197252312201	1387.97644733639	1373.11454674349	259.941878787178	2012.45518720792	853.833862329065	192.472437569062	1496.85044129713	1426.62797184781	159.022198007285	1970.91786239062	1005.23601890072	181.683829434088	1863.94392048301	1153.32103018996	147.840467059898	1726.08213836537	1005.2604454402	146.856613122982	1971.43982180344	1202.54031651314	194.589570063838	1883.54225650676	815.645998389901	160.559229858837	1315.04309204547	1765.22030220462	209.738586682592	2607.55944774988	1025.78863760358	211.488749710543	1771.90510945859	1344.91230789495	144.721468996109	1832.64144271556	900.839562266048	200.003519470316	1934.03508603545	1324.15821439906	133.004650252251	2453.47246455621	899.421614746603	148.005977475148	2040.91250433301	1050.6869113679	152.941549271054	1955.96379102759
826.331075957375	159.226379621326	1387.33060288772	1373.36544364507	260.2790295057	2012.06028465105	853.745412430788	192.618805570281	1496.35592185553	1426.32235543636	159.067196452463	1969.55067828414	1005.01382155283	181.822032450341	1863.17837199676	1152.83677724089	147.889166851605	1724.66964778755	1004.86842581923	146.917770049098	1970.72826719193	1202.06999871057	194.74445275169	1882.3647930065	815.660400600476	160.673127237637	1314.8184457741	1765.02000553448	209.927764913748	2606.23900790205	1026.02350391887	211.67180001474	1771.6264749945	1344.65345983437	144.796254363015	1831.33296446431	901.330445231724	200.157588885022	1934.3488810442	1324.12644025392	133.013077025505	2451.86366413511	899.622936640873	148.017727277756	2040.54528494541	1050.48212712105	152.971570525793	1954.79967645547
826.042840290501	159.231029873577	1386.32138209084	1373.46849462691	260.543413311876	2011.23560107365	853.584342871582	192.739130856967	1495.46804798338	1425.82243891278	159.09335327282	1967.63577982701	1004.64623395685	181.946199523305	1862.04305973915	1152.27495682526	147.930416300629	1722.97054538947	1004.31421717801	146.958493500288	1969.60651838824	1201.51299450191	194.86864254233	1880.95643083461	815.695369792598	160.774209448794	1314.40133823061	1764.84512900056	210.100820353295	2604.54917966951	1026.20788921453	211.83871212194	1771.06390645032	1344.37828817	144.859145596866	1829.62416399668	901.831371703084	200.302831682546	1934.45596518089	1324.25449924834	133.029756697104	2450.23398701807	899.884138239143	148.041506499712	2040.0323055061	1050.44684286492	152.991573226746	1953.71209921669
825.71024453912	159.216306812854	1385.08869324577	1373.43696050249	260.75050469589	2010.11625050951	853.359667023853	192.83536637491	1494.29836242415	1425.18228898904	159.102147576192	1965.39732130586	1004.17952503445	182.058624452232	1860.7048215718	1151.71233582576	147.966376099168	1721.1970533444	1003.63328411617	146.982272722244	1968.22842045287	1200.92445948458	194.970243302896	1879.49114866944	815.750893570049	160.856613122982	1313.89707878743	1764.71205066585	210.257370065727	2602.69580608934	1026.35010316508	211.994022524852	1770.36775168619	1344.10762638908	144.90908637678	1827.68218678454	902.323031845546	200.445332480036	1934.32443350292	1324.5199053541	133.057123506049	2448.56671934511	900.187405898745	148.082229950902	2039.34749057869	1050.57505264642	153.007099550357	1952.70723595289
825.368856963354	159.188136137596	1383.81214761986	1373.30899188739	260.918461350334	2008.88109506194	853.095582437288	192.913736629031	1492.9948899489	1424.48563370074	159.097759181803	1963.11288917693	1003.67331385235	182.162239137273	1859.39172479123	1151.23292324811	147.998672777103	1719.62416767459	1002.88976465819	146.994022524852	1966.84332664711	1200.36305784092	195.059829703219	1878.18229453663	815.831433595588	160.917770049098	1313.42759973977	1764.65404244774	210.397936418555	2600.92544204539	1026.47024077078	212.142233377408	1769.71165514572	1343.88719771036	144.946199523305	1825.72800521092	902.790536845844	200.590196544528	1933.97490787164	1324.90680834957	133.098013173577	2446.90018109568	900.518968606021	148.143386877018	2038.51664552308	1050.85035608201	153.023779221956	1951.80135671109
825.066431576388	159.15663762581	1382.67977861728	1373.14484482637	261.06560203068	2007.72385987958	852.82906494586	192.983055770766	1491.72184607398	1423.83503850805	159.087053926439	1961.059245585	1003.19431321279	182.260803726135	1858.34069464148	1150.91465499213	148.030300871479	1718.52743995741	1002.16369214338	146.998672777103	1965.72726930248	1199.88585138453	195.146906347334	1877.23880544031	815.940558678319	160.958493500288	1313.11339929865	1764.70547396255	210.525452297461	2599.49675718601	1026.59001073636	212.285366262651	1769.26263210543	1343.77032436911	144.971570525793	1824.00953615177	903.224106084333	200.741214797998	1933.47401605791	1325.41046709974	133.152883822482	2445.33403290352	900.86785972039	148.225790551206	2037.61543975092	1051.25196633865	153.046700926337	1951.02671855858
824.856149993916	159.13163707441	1381.85972473156	1373.02172042254	261.208063273451	2006.82812226215	852.60675394404	193.052473253798	1490.63414695213	1423.34026097358	159.078884203872	1959.46598356922	1002.80157715824	182.3569513307	1857.74720814133	1150.80981108452	148.061156926116	1718.11443596316	1001.52817500538	147	1965.11228315418	1199.53637409277	195.238491613027	1876.812594904	816.082054189788	160.983599945141	1313.0587779176	1764.89241995558	210.641633533025	2598.63501297968	1026.73034369607	212.424370086305	1769.15330994969	1343.80442922561	144.986922974495	1822.75752126926	903.622378039643	200.898917788843	1932.93838803747	1326.03913682183	133.220689866218	2444.03955591961	901.231097328302	148.326872762363	2036.77345822054	1051.76261002433	153.078884203872	1950.44809485873
824.784651401701	159.122953402092	1381.46355747209	1373.01782112	261.355846410945	2006.32316861932	852.476630899593	193.130309851513	1489.84647464036	1423.1003869101	159.082229950902	1958.46961849959	1002.54063382236	182.45225808591	1857.72963590441	1150.93766005461	148.0928262539	1718.46893059007	1001.0426001305	147	1965.14264851628	1199.33875688287	195.33836070711	1876.96494647746	816.260081021299	160.998672777103	1313.33556925098	1765.22469061987	210.750684218612	2598.49425292509	1026.90846951577	212.559229858837	1769.46351294422	1344.01874637336	144.995349747749	1822.14470733087	903.991835618458	201.061156926116	1932.51691907193	1326.80691638791	133.298964478817	2443.23212511622	901.609699440091	148.440770141163	2036.15525626242	1052.36491247865	153.1239101739	1950.15417320149
824.887433670953	159.138192450392	1381.54594207405	1373.2030896358	261.515004092785	2006.28363351281	852.481676704718	193.221140298956	1489.43655821312	1423.19872360124	159.106009172858	1958.12672004701	1002.44576110487	182.546414691193	1858.30427928989	1151.29103719605	148.124861433113	1719.52706076741	1000.75201502616	147	1965.84785193397	1199.30433661736	195.445332480036	1877.64817377497	816.474292910875	161.010422579711	1313.96863877139	1765.6825501521	210.855112176798	2599.10763152631	1027.13268183222	212.688200069599	1770.20167785091	1344.40603790955	144.998672777103	1822.23837253707	904.340818336785	201.224209336535	1932.35727259471	1327.71203936206	133.38417555392	2443.11206284228	902.002028904159	148.559229858837	2035.91429997589	1053.03302620419	153.181984939161	1950.22588701147
825.183988456008	159.181033679949	1382.10804324593	1373.62589813462	261.687790284987	2006.72421811547	852.654837165509	193.325545539466	1489.43916385913	1423.69157906852	159.155136679626	1958.42962522705	1002.53918222832	182.638398417049	1859.41324032752	1151.84845189028	148.155948052887	1721.11891012422	1000.68639804984	147	1967.16831053675	1199.4389827239	195.555994742861	1878.74399749661	816.723609867308	161.023779221956	1314.93348478662	1766.2298649188	210.957972043589	2600.38466105181	1027.40707943697	212.811065696255	1771.31200758451	1344.934085587	145	1822.98624904103	904.678794748642	201.382319412218	1932.57779335166	1328.73340245652	133.472263845776	2443.81486476224	902.402935346	148.673127237637	2036.16100786614	1053.73121001673	153.252634003568	1950.71399607537
825.674069551497	159.250446563322	1383.11323528401	1374.30456655549	261.872839454554	2007.61057361639	853.012430258607	193.44209736406	1489.85625865128	1424.60267231372	159.230440803457	1959.33471025319	1002.83562113851	182.727446471257	1860.93996678716	1152.59028307747	148.185594118937	1723.01740237439	1000.86456894571	147.001327222897	1968.96910645908	1199.74974220074	195.666289545141	1880.09255357549	817.003896899816	161.04072345119	1316.16042651275	1766.82504157557	211.061156926116	2602.13341056136	1027.73108416814	212.927093271276	1772.68692016416	1345.55611050331	145	1824.23652944437	905.013687406937	201.529473161733	1933.2315540904	1329.82872575484	133.559229858837	2445.34773049847	902.802733626368	148.774209448794	2036.91934602794	1054.41503760987	153.332500466271	1951.59800762075
826.335538292623	159.341015152904	1384.50552086586	1375.21776223129	262.067022729176	2008.87887203022	853.548513676185	193.565207333984	1490.66759864807	1425.90359717478	159.32819998526	1960.78392183919	1003.34048041723	182.813981640771	1862.75280164302	1153.50182874357	148.214028330745	1725.01045991645	1001.29146167526	147.005977475148	1971.08998785142	1200.24567935597	195.773258189581	1881.54783814385	817.312442955029	161.061156926116	1317.54605344654	1767.44028609706	211.165155081789	2604.09862152247	1028.10476806312	213.03737770416	1774.18923149089	1346.233370761	145	1825.77225418758	905.348775356898	201.661377435029	1934.30163190246	1330.93865460988	133.641633533025	2447.58274737458	903.188779566205	148.856613122982	2038.12738340858	1055.03466445899	153.416990919207	1952.78446432772
827.125729349781	159.444005257139	1386.22164086629	1376.30707356011	262.265366065007	2010.44987472944	854.234387406211	193.689527292496	1491.83950194033	1427.51225837808	159.440770141163	1962.70682149314	1004.0460481463	182.900652096578	1864.73234594276	1154.57290117217	148.243670922025	1726.95200104536	1001.95702179222	147.017727277756	1973.3757857565	1200.93138121112	195.876872874622	1883.01023893481	817.646936579945	161.082403674188	1318.97965242413	1768.07330634168	211.269749256314	2606.03825537922	1028.53159275139	213.143560600305	1775.69278130207	1346.94854146303	145	1827.38259741716	905.686917798359	201.774209448794	1935.69433109714	1332.00569434011	133.71557943434	2450.2662003399	903.551250966218	148.917770049098	2039.63832368013	1055.54749984089	153.499801678233	1954.10840483741
827.982808634624	159.550017267713	1388.19324382755	1377.47628306647	262.460420567568	2012.23615077064	855.018275607989	193.811065696255	1493.32660474764	1429.28855627066	159.559229858837	1965.00736703837	1004.92835807766	182.991316327682	1866.77805584016	1155.78822347208	148.278531003891	1728.77529560019	1002.83304544637	147.041506499712	1975.69072372929	1201.79780068603	195.979566525074	1884.43088797422	818.001102985732	161.101082211157	1320.35747372472	1768.7389474781	211.3736357399	2607.77222943215	1029.01290444706	213.247988558491	1777.10279154622	1347.70697791976	145	1828.91226116192	906.030273198055	201.867035702693	1937.27018172349	1332.99078629321	133.778788943121	2453.08429024664	903.887957248294	148.958493500288	2041.2619902312	1055.93022529284	153.575826354658	1955.37358430194
828.834015053259	159.648562267385	1390.34097696926	1378.60646167721	262.642579230016	2014.14472845691	855.83289007076	193.925766048379	1495.07295671686	1431.05166524203	159.673127237637	1967.54871087403	1005.93939535246	183.089586400323	1868.81026191514	1157.11442790324	148.323003520807	1730.48138127036	1003.86567725047	147.082229950902	1977.92934240673	1202.80876324444	196.084936148072	1885.80171404877	818.363430989962	161.113897378801	1321.59998233622	1769.45680804146	211.475498961751	2609.21418926864	1029.54737310748	213.352388991828	1778.372784486	1348.52756715428	145	1830.29336869186	906.383613183057	201.942876493951	1938.86884496403	1333.88136684769	133.827390034393	2455.72462511526	904.206950138619	148.982272722244	2042.8006917522	1056.18481544535	153.63880346406	1956.39145268066
829.606791989127	159.731751689869	1392.57660635675	1379.57675088325	262.802741888364	2016.07902140787	856.607401314362	194.032727451909	1497.01036362195	1432.60792631289	159.774209448794	1970.15399657079	1007.00971400024	183.196033854103	1870.74563589693	1158.50091230976	148.380411381197	1732.1014437402	1004.97813723332	147.142059654121	1979.98712676091	1203.90324458481	196.196033854103	1887.12280879687	818.711118023004	161.118459717673	1322.65294948507	1770.2306199667	211.57204502648	2610.36146562496	1030.12071635159	213.456820424783	1779.49631244754	1349.42307268456	145	1831.53467171886	906.751726046135	202.005194426626	1940.33458530076	1334.69130567135	133.859410154501	2457.9359533255	904.522865702302	148.994022524852	2044.07926431637	1056.34132398918	153.68542121462	1957.02131791315
830.243206309444	159.79464292372	1394.7985388282	1380.28680263309	262.931536475955	2017.93963952379	857.282006611986	194.1304835748	1499.05573061085	1433.78599253677	159.856613122982	1972.60558367388	1008.0552975672	183.30781826171	1872.49363914387	1159.88528189607	148.451734195476	1733.67472956774	1006.07235524465	147.219813076059	1981.75339509391	1205.0034745528	196.313795736858	1888.3883674494	819.015346915305	161.115224601697	1323.48527006242	1771.04007909155	211.66163929289	2611.26704580277	1030.7069957181	213.559229858837	1780.48780431905	1350.39016683875	145	1832.69331631507	907.135133689108	202.059829703219	1941.53984407042	1335.44846717258	133.871965571684	2459.56285247906	904.848905358016	148.998672777103	2044.96933148638	1056.44702628505	153.712694489443	1957.19852098764
830.705856430298	159.836179648056	1396.89713363147	1380.67413147466	263.022183551604	2019.62574292053	857.814497331273	194.219559084284	1501.11112762824	1434.45935431403	159.917770049098	1974.66173651333	1008.9874754233	183.419719834054	1873.94563826463	1161.20263141228	148.53492361796	1735.20815939257	1007.03483432659	147.309145484607	1983.09412054289	1206.02503717137	196.436119888913	1889.56401603374	819.242418681231	161.105732463407	1324.08818701062	1771.84008145133	211.744130880457	2612.01511596602	1031.26671375282	213.655749731121	1781.37028990215	1351.40044980659	145	1833.8401911465	907.529663389158	202.111955223605	1942.40145487627	1336.18210239663	133.86371267334	2460.55944736907	905.191996031743	149	2045.40338734311	1056.55663180094	153.720146510813	1956.94206071972
830.987879600851	159.859145596866	1398.76736914701	1380.72667257909	263.072025990222	2021.04516885376	858.191218152998	194.29991573803	1503.07484743054	1434.57245844649	159.958493500288	1976.09216664813	1009.72938553923	183.522373611375	1874.98735062004	1162.39633392581	148.625037037203	1736.66733210104	1007.75806938839	147.399263641452	1983.87348992351	1206.89697073601	196.55790263594	1890.58743836623	819.361366669584	161.094153476797	1324.46617066602	1772.56788144347	211.820272725157	2612.67773052103	1031.75150857421	213.742715744182	1782.15424806853	1352.39977223911	145	1835.01631023871	907.921199424678	202.164257661406	1942.87687801989	1336.90107674707	133.834039152013	2460.95492553421	905.544402899913	149	2045.36096515569	1056.71392964937	153.709719193501	1956.32919990553
831.106822469072	159.86916109174	1400.32915429939	1380.48094985515	263.083342515547	2022.13227764762	858.423272651724	194.370557053814	1504.85659115199	1434.14475731977	159.982272722244	1976.73453281431	1010.23539724056	183.608624564491	1875.52851799112	1163.43847207876	148.715177911724	1737.98674060204	1008.1664695048	147.478327130832	1983.99518267955	1207.58071385611	196.673127237637	1891.38909987749	819.352102930508	161.084936148072	1324.63374910612	1773.16157961468	211.892940313696	2613.29334620215	1032.11765945927	213.816687837942	1782.83251103799	1353.31947269501	145	1836.21068527873	908.289481658719	202.217104979003	1942.97849163769	1337.59172063583	133.785831783304	2460.84662250762	905.885567765017	149	2044.88025430988	1056.94170224614	153.684749572147	1955.48338586294
831.106377703261	159.871698372798	1401.53801621042	1380.01976469899	263.065553186592	2022.85249083066	858.548475067321	194.430125258311	1506.39152971781	1433.27315832942	159.994022524852	1976.52727675702	1010.49814713981	183.672329071488	1875.53292820849	1164.33104814749	148.79798867075	1739.10085053547	1008.23209514341	147.535717835767	1983.44155652988	1208.07750226786	196.775536671691	1891.92446710777	819.205908873772	161.08144690238	1324.61546070517	1773.57511022835	211.965698944099	2613.87345390045	1032.32790331733	213.8760898261	1783.38666599284	1354.09310230097	145	1837.37163085473	908.606740522783	202.267997793125	1942.75410272148	1338.21231399795	133.722796219006	2460.35479768499	906.182987406604	149	2044.03188731059	1057.23334231936	153.650815124529	1954.53231719827
831.042767165385	159.872239777826	1402.40084996401	1379.45371855825	263.032055809437	2023.21964256077	858.61839707908	194.477110538989	1507.65416776186	1432.11314084258	159.998672777103	1975.5447208398	1010.5516434518	183.713052522677	1875.04755362267	1165.11335523389	148.86836292559	1739.98614576769	1007.98595627046	147.566146175343	1982.30483423593	1208.43265458471	196.86259059813	1892.20689728113	818.934678905589	161.084936148072	1324.45445295766	1773.80414907204	212.04072345119	2614.43524224639	1032.37058766065	213.921115796128	1783.81045938063	1354.68437533858	145	1838.44033187963	908.847985515693	202.315110541901	1942.28942642592	1338.71280159599	133.653471249011	2459.62336025028	906.406342739328	149	2042.92530969694	1057.56191638035	153.616093544851	1953.60210790266
830.978141512925	159.873025595694	1402.97907662677	1378.90463250697	262.999732801114	2023.29596278647	858.692775250273	194.510885666629	1508.66498584603	1430.85804728309	160	1973.997011779	1010.4637922038	183.734284163753	1874.20415110875	1165.85162120369	148.922420301349	1740.68003507927	1007.51073831048	147.571246860331	1980.78138829784	1208.72384382606	196.935497326854	1892.32039812037	818.569248398942	161.094153476797	1324.20904930284	1773.89258297311	212.119237203974	2615.01733529312	1032.25697751465	213.953299073663	1784.1175397871	1355.10040757722	145	1839.38421674595	908.995224616755	202.357568300826	1941.69770139563	1339.05460437269	133.587921190905	2458.81272964528	906.536505335884	149	2041.70093880389	1057.89187510384	153.587921190905	1952.80693043998
830.966365868938	159.875138566887	1403.3785920165	1378.48093752903	262.986222232288	2023.18844216195	858.822805268634	194.532643235966	1509.48288511135	1429.70054342974	160	1972.20252140834	1010.31788162921	183.743513910331	1873.20003974964	1166.61979977697	148.958493500288	1741.28629174379	1006.91811793413	147.55790263594	1979.13443956298	1209.04157533819	197	1892.41298521183	818.156321582836	161.105732463407	1323.96029825061	1773.92801708455	212.201213163101	2615.7130171705	1032.0231481895	213.974893555147	1784.3548246482	1355.39530373622	145	1840.23368980425	909.044634611608	202.396990721564	1941.11379027294	1339.23225086649	133.535815259709	2458.11330027988	906.575466420638	149	2040.53373337661	1058.19657894051	153.573192963869	1952.25952813328
831.041598007077	159.876872874622	1403.72489825455	1378.25570424217	263.003861596666	2023.02395851283	859.04027078418	194.546414691193	1510.18925270021	1428.798488115	160	1970.52337707584	1010.19742466361	183.749915625771	1872.26574712367	1167.48345638612	148.977622469994	1741.96013562715	1006.32706517651	147.538000266219	1977.65101603217	1209.46909898925	197.064502673146	1892.67336679062	817.75634933309	161.116551824594	1323.80688877972	1774.03603698504	212.285459738251	2616.66356946901	1031.72798481737	213.989577420289	1784.60256155779	1355.67079247409	145	1841.09034511807	909.012829415789	202.436900899608	1940.68047102524	1339.28736778832	133.506315682866	2457.73795629812	906.55355678561	149	2039.61396439308	1058.47060132637	153.576969554446	1952.06483983078
831.212346016384	159.877686147768	1404.13599778113	1378.25283737539	263.05870472072	2022.92487027728	859.349929141541	194.558013266994	1510.86995059191	1428.25223164544	160	1969.29920077524	1010.16916345725	183.761665428379	1871.6264886488	1168.47786650507	148.982272722244	1742.86949442212	1005.84371253912	147.523186233205	1976.60072312478	1210.06000689901	197.13740940187	1893.29204209979	817.434753524864	161.123109969924	1323.85400983394	1774.35179988523	212.371093721241	2618.04241591682	1031.44337204632	214.001327222897	1784.96583980468	1356.05162245611	145	1842.11678889607	908.932818803107	202.481493592353	1940.53983989536	1339.30280403536	133.504321555097	2457.9103191352	906.521794189762	149	2039.13587185732	1058.72946222604	153.600753514003	1952.31474176348
831.462979460479	159.875545651725	1404.70485194446	1378.44590822156	263.149364352165	2022.9939179552	859.731945668271	194.572184912432	1511.60440546259	1428.09930634979	160	1968.80709833616	1010.27885983047	183.783693187146	1871.45739602348	1169.6077254224	148.974893555147	1744.15148868094	1005.54875056939	147.522906616466	1976.19115597051	1210.83614382298	197.224463328309	1894.41510889382	817.250235377572	161.126974404306	1324.19695073808	1774.9872389876	212.45814764768	2620.00780110259	1031.24296969381	214.016400054859	1785.55107671932	1356.65712078864	145	1843.49450569401	908.849680124595	202.534137869664	1940.81087127437	1339.38518806264	133.530618399348	2458.82414630545	906.543024118011	149	2039.25846875093	1059.00377746006	153.643188555251	1953.06539498516
831.760106299115	159.870488314637	1405.47538097013	1378.77145976144	263.267043059144	2023.28594903403	860.147620137958	194.593024575666	1512.44305373725	1428.31989086629	160	1969.210712904	1010.5473288631	183.816514114655	1871.86839635263	1170.85208756241	148.95927654881	1745.89821051015	1005.4950430677	147.542106344095	1976.55203951163	1211.78751415214	197.326872762363	1896.12727607127	817.248732703075	161.13083890826	1324.90300844301	1776.01854688053	212.547829827468	2622.66469976754	1031.19362215894	214.041506499712	1786.44591978809	1357.58478015919	145	1845.38165264276	908.812932375893	202.596080544076	1941.57024750902	1339.64357856883	133.581624544297	2460.6039185305	906.67809082065	149	2040.07455875186	1059.33008544486	153.70008426197	1954.31809301052
832.062491793903	159.862603015983	1406.43486578313	1379.14841158642	263.400046689974	2023.80053884804	860.551241504447	194.621016172932	1513.40009011101	1428.85374980637	160	1970.53529120014	1010.97246906697	183.856439399695	1872.87972722932	1172.17209331608	148.938843073884	1748.13237222721	1005.70103926809	147.580302883622	1977.70651302571	1212.87823532169	197.440770141163	1898.42924540695	817.454263502641	161.140854403134	1325.98793409092	1777.46612877715	212.641983304264	2626.01536697383	1031.34251211607	214.080902728005	1787.68599355931	1358.88521268955	145	1847.86018942883	908.857659205634	202.665760488393	1942.84136297217	1340.14982451315	133.650143482056	2463.28154581276	906.962449920393	149	2041.59433077714	1059.72885715594	153.764040860857	1956.01607751944
832.335671324377	159.85311080812	1407.51934586663	1379.50506841811	263.53545063688	2024.48724316709	860.905590961811	194.654277281247	1514.44912179756	1429.62372055293	160	1972.66928279477	1011.53043946491	183.898119622694	1874.42924839488	1173.51915366085	148.917596325812	1750.80603419379	1006.15021778911	147.632230063161	1979.57148616117	1214.05745272192	197.559229858837	1901.24124558875	817.865180599757	161.163820351944	1327.416100843	1779.29138250638	212.742969735956	2629.96134125496	1031.70773403442	214.138736624767	1789.24990312359	1360.55301817475	145	1850.9159333102	908.999902882864	202.73895713368	1944.57056983767	1340.92914756986	133.726927714332	2466.75667231938	907.402483946606	149	2043.71959353864	1060.20414539715	153.828009925489	1958.03056730646
832.555656140906	159.844051947113	1408.61733825355	1379.79391990581	263.661377435029	2025.24505749861	861.186304989395	194.690496482158	1515.51845408925	1430.54980798975	160	1975.37100642236	1012.17769727191	183.935497326854	1876.37284322183	1174.83837756099	148.898917788843	1753.78926742183	1006.79304882598	147.690854515393	1981.95868119973	1215.25995871908	197.673127237637	1904.4017441177	818.449112215136	161.204029853383	1329.09028160506	1781.39431359348	212.851260090697	2634.28456209817	1032.27001494538	214.212713525701	1791.04079988875	1362.51433062917	145	1854.41040584061	909.231836888343	202.809738473358	1946.63525345105	1341.94678059339	133.802638923	2470.80888777422	907.969816570366	149	2046.2610279329	1060.7355678215	153.885042597189	1960.17675069248
832.712641423464	159.837760862727	1409.58017421677	1380.00031894936	263.769559196543	2025.9327033978	861.387095883998	194.726927714332	1516.49727308181	1431.56327424914	160	1978.30572333423	1012.85760529636	183.964470975436	1878.49963015498	1176.07131187736	148.8861026212	1756.87733417861	1007.55794359538	147.748693219329	1984.60355877699	1216.41723914037	197.774209448794	1907.68087671478	819.146967609276	161.26359805788	1330.86007815234	1783.62454961955	212.964371721202	2638.66572951391	1032.97545382968	214.298443288156	1792.89408945037	1364.63834764238	145	1858.08945423349	909.522217043543	202.873013177841	1948.85684479752	1343.10883208731	133.869690148487	2475.11479982348	908.605147736652	149	2048.96263651474	1061.27558128763	153.930847074603	1962.22842370834
832.8104824868	159.835192651623	1410.24190729251	1380.14331760668	263.855285900085	2026.39033559619	861.519250421088	194.760958700002	1517.25057662402	1432.61733284023	160	1981.10146461208	1013.50631557881	183.983599945141	1880.56729408322	1177.15912835525	148.881540282327	1759.8194230257	1008.36439015576	147.800637554322	1987.2133758898	1217.45889656244	197.856613122982	1910.81791869865	819.876882192814	161.33836070711	1332.54351184391	1785.7981299832	213.076426199041	2642.73864967399	1033.74185177586	214.386969664469	1794.60980126259	1366.75151687758	145	1861.62995814872	909.825465251898	202.923747524246	1951.00903545927	1344.28349149034	133.922420301349	2479.27555053194	909.234377599472	149	2051.52298156666	1061.75985256933	153.963143752539	1963.93278313905
832.857356175595	159.837760862727	1410.43512183641	1380.25855270284	263.916442826201	2026.45155521556	861.602547080062	194.792387159287	1517.63366147531	1433.68071403759	160	1983.40218659467	1014.06436458028	183.994022524852	1882.33148855734	1178.05248036711	148.886102621199	1762.35249380164	1009.13907482681	147.844596121488	1989.50493892991	1218.32538719148	197.917770049098	1913.55415033607	820.542418512392	161.420226035183	1333.94598635278	1787.71928794882	213.178812915418	2646.13318658778	1034.47147126589	214.468316235617	1795.97659512419	1368.6677402366	145	1864.68792647999	910.090644888926	202.959820723185	1952.86093231865	1345.3302830707	133.959820723185	2482.89072330333	909.785024840837	149	2053.65329011624	1062.11860752435	153.983599945141	1965.05128325204
832.857267497853	159.84537917001	1410.00917544154	1380.37893957776	263.952516025141	2025.96681175457	861.654667098483	194.81894550226	1517.51069561635	1434.72061606044	160	1984.91246136298	1014.48132133361	183.998672777103	1883.56743426441	1178.71179363333	148.898917788843	1764.23736168566	1009.81756968663	147.881190511088	1991.23005548486	1218.96960694589	197.957166277391	1915.662619801	821.049310560685	161.498871236812	1334.88545204415	1789.21080128184	213.261854239581	2648.52855772631	1035.06712101422	214.532272834503	1796.80504415561	1370.21856221205	145	1866.95366646101	910.274519928659	202.982272722244	1954.20184238009	1346.12779388765	133.982272722244	2485.61310052382	910.202930912267	149	2055.1163916785	1062.2934112374	153.994022524852	1965.39411854795
832.803755861623	159.857761060371	1408.84911585763	1380.5178996261	263.963218221592	2024.82279425831	861.682756025176	194.840033782615	1516.77388960576	1435.69333372731	160	1985.42834136361	1014.71860800951	184	1884.09309771386	1179.10894649738	148.917596325812	1765.28832038844	1010.34889283861	147.911618850664	1992.19198405021	1219.35914458153	197.976295247097	1916.97516106677	821.3176320913	161.563626119313	1335.21089034488	1790.13847432101	213.317039252772	2649.68609783881	1035.44714913137	214.570463811809	1796.95000123176	1371.27924083157	145	1868.18972593814	910.3464752266	202.994022524853	1954.86462007184	1346.59764627854	133.994022524852	2487.19125630537	910.462904002286	149	2055.75146248374	1062.25047321703	153.998672777103	1964.84326306319
832.677300400077	159.874352818591	1406.89120156524	1380.65729037618	263.946538549993	2022.95962204464	861.677380668565	194.851975288585	1515.3581905061	1436.53093407006	159.998672777103	1984.84953366661	1014.74976834329	184	1883.78948151382	1179.22204080003	148.938843073884	1765.3966917716	1010.69034572491	147.93618862809	1992.26331418524	1219.47258661758	197.976295247097	1917.3991306276	821.29623994468	161.607297341594	1334.81824056486	1790.43007369504	213.33894977723	2649.46188964114	1035.55903753255	214.578082119092	1796.32012882619	1371.78263833084	145	1868.24811891172	910.293673052983	202.998672777103	1954.76484491586	1346.71812384495	133.997345554206	2487.52123786347	910.570859678522	149	2055.51463251398	1061.98994061403	154	1963.3884592319
832.446667089418	159.894267536593	1404.13375666785	1380.7492336109	263.898715548446	2020.38420626126	861.612454214118	194.852761036881	1513.25680965449	1437.14645232261	159.995349747749	1983.17995048657	1014.55774134794	183.998672777103	1882.59700062525	1179.03134680621	148.957949325913	1764.5217202282	1010.80858286069	147.954626296559	1991.37901047667	1219.29726298297	197.957166277391	1916.90886381013	820.967790690984	161.6264263113	1333.65807360713	1790.07697061117	213.326134609586	2647.80404683597	1035.38340263592	214.554841243251	1794.88411898899	1371.71841925162	145	1867.0687534431	910.122560796003	202.998672777103	1953.90363741173	1346.52181916559	133.994022524852	2486.64158835521	910.560525485762	149	2054.47028250954	1061.54660419761	153.998672777103	1961.11471689868
832.080534669884	159.916269102915	1400.6437532758	1380.72865201713	263.81510662327	2017.17390973518	861.453564184209	194.838689404264	1510.52770248646	1437.44791673822	159.988250197392	1980.52009275537	1014.13573259854	183.994022524852	1880.53363544911	1178.51908912472	148.971570525793	1762.69735188206	1010.68588172387	147.963143752539	1989.56493851588	1218.82578796616	197.916442826201	1915.54818979109	820.351949513397	161.623478540208	1331.74303886781	1789.1321600095	213.27965598639	2644.75312774786	1034.93805176563	214.504908191481	1792.67698462645	1371.12703235922	145	1864.67913546987	909.857304828199	202.994022524852	1952.37122172863	1346.08358759182	133.983599945141	2484.71535142401	910.484102839155	149	2052.78003864254	1060.98089036586	153.995349747749	1958.1875395955
831.555591194855	159.938843073884	1396.55466537406	1380.53392099575	263.690652274995	2013.47037392397	861.169399016687	194.807205999474	1507.29278524528	1437.36843397256	159.976220778044	1977.05698853963	1013.4916267837	183.982272722244	1877.69532732415	1177.67907142768	148.975173171887	1760.02289775586	1010.33171363139	147.958493500288	1986.94271805701	1218.06453723868	197.850635647835	1913.42122344746	819.500721320674	161.602747420575	1329.14702530886	1787.69973725112	213.201809088853	2640.43381746677	1034.27621860922	214.434530808155	1789.80234822366	1370.08983792234	145	1861.18297609857	909.535638815848	202.982272722244	1950.34992840749	1345.5026431338	133.964470975436	2482.01445350993	910.401944773212	149	2050.69217716979	1060.3675206684	153.988250197392	1954.83926895014
830.86986109219	159.957949325913	1392.05644932742	1380.12773046979	263.522435662575	2009.46608894533	860.744213910781	194.755937996663	1503.72802321618	1436.88423765032	159.957949325913	1973.04279778178	1012.65077665213	183.957166277391	1874.23971508286	1176.52567760587	148.965593050646	1756.64943203551	1009.78906814034	147.936899018804	1983.71304659425	1217.03744374496	197.756482171038	1910.67512390894	818.488061193818	161.570886185845	1325.99855274738	1785.91740967096	213.096076625445	2635.04813166361	1033.47507230289	214.350973855553	1786.425369405	1368.71663208901	145	1856.75742359783	909.204919766819	202.957166277391	1948.07245329869	1344.88486445742	133.934170103957	2478.85589958042	910.37360733313	148.998672777103	2048.48814938774	1059.78325707843	153.974893555147	1951.32033070395
830.042751498324	159.970243302896	1387.37344098241	1379.5046193049	263.30840733183	2005.37541728568	860.180972273456	194.684093991723	1500.04098102632	1436.02118616759	159.932865598736	1968.75577790459	1011.65549147968	183.911792573951	1870.38239306807	1175.09949761874	148.940222048158	1752.7771236787	1009.13261047304	147.896009351275	1980.14563349339	1215.78724300799	197.630293515028	1907.49445244574	817.3989006631	161.533876011803	1322.47577101973	1783.94247141229	212.963218221592	2628.88263938368	1032.62679840687	214.258149280341	1782.7699551129	1367.13618563291	145	1851.65174845163	908.913581123033	202.910465351054	1945.80302877483	1344.32709103869	133.892142147546	2475.58184172784	910.449336369369	148.994022524852	2046.46432933811	1059.29737914467	153.953299073663	1947.88894895804
829.116706541334	159.970522919636	1382.73175807322	1378.69544663738	263.046031680392	2001.39966864013	859.505325299933	194.589582481692	1496.43743077748	1434.85637170385	159.899869048056	1964.45308889348	1010.56364787345	183.837558622329	1866.34728234713	1173.46405914009	148.897336574172	1748.61131768248	1008.45980051359	147.83536637491	1976.5234747746	1214.3743976194	197.46969520989	1904.06049631752	816.319850573204	161.494194654174	1318.77913529929	1781.93227993406	212.801650726792	2622.26576471906	1031.82256611328	214.154934439228	1779.08259677531	1365.48111417848	144.998672777103	1846.15511339725	908.706247029597	202.832908370079	1943.79056452931	1343.9070933356	133.83871212194	2472.50025768162	910.666661822447	148.982272722244	2044.87926008551	1058.96565587457	153.921115796128	1944.77283793974
828.147649721898	159.953843248037	1378.33393971632	1377.75151062537	262.730029496741	1997.69803851485	858.758466533808	194.471039588242	1493.09501482601	1433.49813432216	159.857411289131	1960.34692453884	1009.43697355742	183.725398251037	1862.34640977859	1171.69431202717	148.834039152013	1744.33938397628	1007.87415334885	147.755530911825	1973.11189902022	1212.86492312741	197.273678511242	1900.53410894192	815.325487446779	161.450842949635	1315.11379203415	1780.02507357581	212.607371810647	2615.54288984018	1031.14007285056	214.033592476432	1775.60496461173	1363.87151686229	144.994022524852	1840.57034342698	908.616368012938	202.713648448429	1942.23324022863	1343.6758382028	133.775007614943	2469.8514950774	911.044920289748	148.958493500288	2043.92024174089	1058.82592045262	153.8760898261	1942.14930960633
827.198240475172	159.915115603304	1374.33548256458	1376.73275572342	262.348046190241	1994.36686875292	857.988647738427	194.325343299068	1490.14153032685	1432.07308390432	159.802545447401	1956.58317144693	1008.34027259381	183.567192533832	1858.55035045061	1169.87636020855	148.749553436678	1740.11116342627	1007.47556356198	147.658984847096	1970.12161339696	1211.330881521	197.040521210792	1897.03964045905	814.474331313706	161.399696918734	1311.66088436506	1778.32661489669	212.37300925921	2609.02908064066	1030.63252876892	213.88098827069	1772.53572861924	1362.4069026228	144.982272722244	1835.17436934439	908.659289555824	202.542086088979	1941.25051818443	1343.65210870158	133.702790459141	2467.78410774196	911.581541696108	148.916442826201	2043.67334137081	1058.89290498916	153.815360615045	1940.12804698965
826.329186522748	159.850635647834	1370.83440887454	1375.6923073562	261.879797834083	1991.43074927688	857.246235574524	194.147489855233	1487.64559107314	1430.70930790808	159.732175930161	1953.24228759779	1007.32861778141	183.355281981454	1855.07994277663	1168.09184142175	148.642584792238	1736.03738940829	1007.3414904768	147.548690044816	1967.69389563021	1209.83643649313	196.767876640185	1893.66333884912	813.804489346784	161.331678807451	1308.56324613803	1776.9023095103	212.089915916447	2602.98466313262	1030.32361073552	213.679241499075	1770.01108830158	1361.15738254636	144.958493500288	1830.19421136556	908.829530337529	202.308581055117	1940.87016825341	1343.82625030001	133.624256026508	2466.34420952064	912.25136794995	148.850635647835	2044.11180156183	1059.16138145337	153.736738269034	1938.74512782473
825.592583900876	159.756482171038	1367.87802708529	1374.66259641006	261.296706180938	1988.86099514321	856.572977388587	193.928794116783	1485.62224316289	1429.51709761871	159.642584792237	1950.35914623293	1006.44372270699	183.083938441299	1852.00670037896	1166.41786494753	148.511833797355	1732.19511730844	1007.51596198358	147.426277979383	1965.89195459092	1208.43838596068	196.451967932135	1890.46282872186	813.3324298737	161.2389325352	1305.909759771	1775.77273708314	211.750678419177	2597.58472872008	1030.20479383413	213.409401408412	1768.08306229704	1360.1605872489	144.917770049098	1825.78321493828	909.096455566012	202.005054237427	1941.01847639657	1344.15921226781	133.54185235232	2465.46724353769	913.005438305312	148.756482171038	2045.09132291955	1059.60349838936	153.638022453365	1937.95845319823
825.02317386087	159.631620737925	1365.47744945008	1373.64853470742	260.564315592525	1986.59861333389	855.994619315093	193.659329214809	1484.05069082845	1428.56863517114	159.529211303872	1947.94285671769	1005.70789533447	182.74935119628	1849.3692733143	1164.91875912438	148.357125053987	1728.65015040355	1008.00447126053	147.292203955147	1964.71715597501	1207.17788626036	196.087284188329	1887.48637229242	813.05649543272	161.113983188709	1303.74312237088	1774.9217684857	211.349304506307	2592.93006182102	1030.23854970345	213.055688252601	1766.73218378454	1359.42549388846	144.856613122982	1822.02586835543	909.411771973439	201.62544102238	1941.5432127856	1344.59627298705	133.456820424783	2465.00458452854	913.778932585043	148.631620737925	2046.37829637541	1060.17780007858	153.516396136228	1937.66215973511
824.634826983747	159.476999907935	1363.6152025493	1372.62832978248	259.648985330969	1984.57064434623	855.516940236936	193.328586814982	1482.88330671172	1427.88672553022	159.388618758599	1945.97445221547	1005.12148070698	182.350631729204	1847.17851515687	1163.63927939965	148.178573775233	1725.4606687874	1008.77264320622	147.144511859517	1964.11821772317	1206.07854667394	195.666947522092	1884.77790413007	812.963482612899	160.953130957439	1302.05753618395	1774.30728589413	210.884052501095	2589.03993749187	1030.36935875156	212.606579251561	1765.87132295779	1358.93892484935	144.774209448794	1818.93751153792	909.711564507398	201.165992344248	1942.25179067698	1345.06851902959	133.369766498344	2464.77106123482	914.493749049041	148.475672685038	2047.70612540853	1060.82797695498	153.369940221631	1937.71948885479
824.422137942686	159.296056041249	1362.26008557597	1371.56447439236	258.523605348447	1982.71615826653	855.128777388268	192.927850502461	1482.06665934016	1427.45000914695	159.217171837377	1944.4218612663	1004.66472752939	181.888702753346	1845.43764601255	1162.59831123896	147.97584481436	1722.68599813139	1009.75559350656	146.97974024836	1964.02597510289	1205.14323030419	195.185046844901	1882.38868185339	813.029104519588	160.756482171038	1300.81968480412	1773.86935586504	210.355281981454	2585.8847821614	1030.53017223064	212.060338504851	1765.38070047917	1358.66920295253	144.673127237637	1816.48997892885	909.929607320336	200.62544102238	1942.94384765243	1345.50739295143	133.279482263103	2464.57337709941	915.074189493047	148.291405788998	2048.81541770593	1061.49178162175	153.197252312201	1937.97600648612
824.361298822968	159.095104736009	1361.36801899354	1370.41377394529	257.175340611035	1980.98743406519	854.803760299075	192.453018445581	1481.54661511361	1427.19797209799	159.012874785107	1943.23271842576	1004.30515386192	181.367031784062	1844.14616550345	1161.78968971892	147.749553436678	1720.37674904074	1010.87642280765	146.79464292372	1964.37477201249	1204.35782109412	194.637395972675	1880.37040839487	813.225146773628	160.527798205424	1299.97773836293	1773.54384280527	209.767078474036	2583.40057080798	1030.65715780423	211.422478433917	1765.13149525608	1358.57551727054	144.559229858837	1814.62729479702	910.012234775938	200.005054237427	1943.45632583813	1345.8576121347	133.183485885345	2464.26100273571	915.460419331437	148.083354933401	2049.51065024653	1062.11006582629	152.998418785329	1938.29174984549
824.413892482597	158.879863288191	1360.88572965836	1369.13942124692	255.609265193616	1979.35532964847	854.506791956981	191.906626472064	1481.27394702122	1427.04936891492	158.77518133823	1942.34656405793	1004.00599956055	180.792184918889	1843.29721574066	1161.18675973542	147.500779129891	1718.56786763332	1012.06048258297	146.588191089565	1965.1121134474	1203.69786094222	194.02410873808	1878.76482671288	813.523304449144	160.274809293177	1299.47789700992	1773.27781138453	209.125444941011	2581.51884266972	1030.70164697335	210.708998196179	1765.01609248098	1358.61978549596	144.440770141163	1813.29243361737	909.927637458088	199.309908278014	1943.69516850755	1346.08752957094	133.079057927159	2463.76469215797	915.619604538127	147.857411289132	2049.70130526274	1062.63307702738	152.775964386752	1938.56791728518
824.537049007006	158.656459983892	1360.7545550529	1367.72318923843	253.853067598115	1977.81301640589	854.202674868423	191.296657529222	1481.20952320844	1426.9237497314	158.505973556517	1941.70328121261	1003.73652804994	180.172145867348	1842.87631767849	1160.75241545953	147.231923819191	1717.2701367878	1013.24832816866	146.361868781837	1966.19984208752	1203.13426377991	193.351414777725	1877.59642692419	813.897344411434	160.005194426626	1299.26518256639	1773.03198952571	208.437511932356	2580.17201874664	1030.63401367393	209.939438999636	1764.95625565073	1358.76711279058	144.325545539466	1812.43314472929	909.670243440698	198.548063564127	1943.63333007869	1346.19175781635	132.964470975436	2463.0894420374	915.550359076186	147.620386784953	2049.39502964368	1063.02783382693	152.534123413984	1938.74864244649
824.684600114382	158.427693115658	1360.90614050777	1366.16508065575	251.952580983629	1976.36073436858	853.858933421976	190.637393065386	1481.31157815799	1426.75193083196	158.20900211481	1941.24157097338	1003.47465540724	179.517723359125	1842.85330554676	1160.44851152918	146.946199523305	1716.46405876946	1014.39979387888	146.120996929158	1967.60274632972	1202.64221294666	192.630293515028	1876.86079685952	814.324680514943	159.727896903994	1299.2883970556	1772.78883760761	207.711906633747	2579.29832671467	1030.44885244699	209.13625590226	1764.90746849107	1358.99246528706	144.219813076059	1812.00335782062	909.257800005744	197.732702949082	1943.3072303781	1346.19121327443	132.840039344837	2462.30938422421	915.282297125362	147.37828599215	2048.68898174812	1063.28178021953	152.279482263103	1938.82390504993
824.813330107961	158.195235687953	1361.26988451849	1364.48278378996	249.968916079999	1975.01117648532	853.448721874242	189.944872300408	1481.53924631152	1426.4851851209	157.890814924649	1940.91606200446	1003.20797805985	178.840467059898	1843.17033975751	1160.2386253425	146.648733083382	1716.09398092224	1015.4875379157	145.873025595694	1969.26538866005	1202.19851977969	191.874762603203	1876.51566142722	814.784892941945	159.452519943772	1299.48970084378	1772.54179487907	206.957166277391	2578.8167747199	1030.15577306113	208.320895287215	1764.83633105406	1359.27231637408	144.125659599262	1811.93823503711	908.723477831888	196.880392344938	1942.78960251555	1346.12010971101	132.708656262201	2461.53509590452	914.862810382407	147.136611235721	2047.7321028392	1063.399203119	152.019128969705	1938.82136519728
824.888233822118	157.95927654881	1361.76795235984	1362.71043753319	247.968586563876	1973.77391084924	852.955559102123	189.23728636204	1481.84218180543	1426.10636914278	157.559229858837	1940.6905479788	1002.93012652201	178.153555464955	1843.73871637823	1160.09508485106	146.34528944147	1716.06859347234	1016.49530208053	145.626381415555	1971.10003899995	1201.78567322376	191.101532643894	1876.47678536573	815.259469262328	159.186635191412	1299.80356351719	1772.29288213401	206.183485885345	2578.62161027843	1029.7771192086	207.50992306656	1764.71607178664	1359.58420519196	144.04072345119	1812.1506051536	908.103277563231	196.011749802608	1942.1584100985	1346.01187891225	132.575629913695	2460.86238799039	914.346086812724	146.898917788843	2046.67325775245	1063.39609330617	151.75991396519	1938.77768302539
824.886798590443	157.719828163974	1362.32584631353	1360.895862451	246.015913970903	1972.65433070756	852.375910490079	188.530356541486	1482.161991093	1425.62982683985	157.221755231254	1940.54779861132	1002.63865266423	177.46919961537	1844.45294546712	1160.00030537292	146.042050674087	1716.28037678493	1017.41062958286	145.388029688479	1972.99708282506	1201.3911184274	190.326872762363	1876.63635582721	815.730848707264	158.935774036305	1300.15516136908	1772.04797918949	205.400046689974	2578.57975710262	1029.33815290449	206.714366538463	1764.510338958	1359.90416807218	143.95927654881	1812.5216153562	907.42845186145	195.148037129269	1941.48358418211	1345.89058207532	132.445420393414	2460.35809624506	913.777776622872	146.66708771129	2045.63551377476	1063.29270335446	151.50657731953	1938.73331686544
824.799040240393	157.478153407545	1362.87217549292	1359.09288455183	244.164212958033	1971.65118446899	851.717703831125	187.838820886738	1482.43779632264	1425.09745764025	156.887429844096	1940.48647799852	1002.33024068746	176.798097435548	1845.19337775932	1159.94453452139	145.744296958853	1716.61729227623	1018.21949516995	145.163306402193	1974.81493673782	1201.00577898573	189.565028048476	1876.87109912475	816.181010725059	158.702616735854	1300.46304620044	1771.81140367606	204.619007810679	2578.53601205974	1028.86244466393	205.941751511452	1764.17367510669	1360.20880784457	143.874340400738	1812.90828470158	906.721382761419	194.309347725005	1940.80083864366	1345.76574907102	132.322222510112	2460.03048721049	913.19030276005	146.44209736406	2044.68036355031	1063.11208031922	151.261065583996	1938.71183158755
824.628891783231	157.236480329804	1363.35252092227	1357.35718228557	242.451803597926	1970.76250981477	851.000594829707	187.173143574122	1482.61521244511	1424.56679460403	156.564680315064	1940.51608157074	1002.00207373033	176.149364352166	1845.84814390631	1159.92841759751	145.458497418919	1716.98833380717	1018.90509463968	144.953125350376	1976.40684944373	1200.62626289847	188.827854132652	1877.0691428672	816.591307071347	158.487471067501	1300.65453295959	1771.58327003013	203.852248286906	2578.35002100481	1028.36443941027	205.195267112353	1763.66223206293	1360.47531167487	143.780186923941	1813.17442495926	905.99398717291	193.511766139093	1940.11224064142	1345.63694977992	132.208063273451	2459.83271595077	912.599373783709	146.224992385057	2043.80702941128	1062.87845014095	151.023779221956	1938.71865521873
824.388894486419	157.000261857861	1363.71956779602	1355.73725470966	240.898012868122	1969.97308514111	850.248859155866	186.540727369821	1482.64557439094	1424.0923287315	156.26219636593	1940.62863011569	1001.64733019339	175.53030479011	1846.32661551089	1159.94984292657	145.189289637206	1717.32963945175	1019.44554680136	144.755357188539	1977.63939666136	1200.24852384031	188.12506367351	1877.14332156612	816.944678322006	158.28747653407	1300.6758240972	1771.36305915322	203.111707031266	2577.92373190907	1027.85034821463	204.476224696675	1762.94571880788	1360.68724209704	143.674454460534	1813.21545505829	905.252332104055	192.766517921027	1939.38745828136	1345.49823603419	132.101880377306	2459.6746474273	912.007689292594	146.017727277756	2042.95789254067	1062.61683143503	150.792734892699	1938.7414196152
824.09671427542	156.77468574371	1363.93963268059	1354.26987510471	239.50542084077	1969.263687418	849.488798290398	185.945336398667	1482.49675976964	1423.71130118499	155.987125214893	1940.79181463239	1001.25992733996	174.945336398667	1846.55983828771	1160.00324899403	144.940424288555	1717.5962523529	1019.82009336442	144.565207333984	1978.40887556515	1199.86926743797	187.462973947883	1877.03171697707	817.226373821891	158.100130951944	1300.49902339431	1771.14289619336	202.411212984684	2577.21200888827	1027.3176013576	203.787130681462	1762.01199661468	1360.82906637717	143.559229858837	1812.97693127689	904.499904190824	192.078300695974	1938.57203488009	1345.34785269585	132	2459.4438841625	911.411523041487	145.821164366906	2042.03656849412	1062.35478537856	150.565207333984	1938.75176371855
823.77146541632	156.566267357995	1363.98749085569	1352.97742445544	238.263925369849	1968.60198226201	848.744557143412	185.388499127763	1482.15230235902	1423.43798712453	155.745450458463	1940.94035238929	1000.83378267688	174.398921707474	1846.51182511341	1160.07149783098	144.71569376136	1717.75688760186	1020.01707784546	144.377594690914	1978.6728009298	1199.4805862265	186.845581410407	1876.70306186551	817.422096908011	157.923573800959	1300.12443378513	1770.9060927506	201.760745593567	2576.22739176105	1026.75711177543	203.130258100136	1760.87545423321	1360.88284160376	143.440770141163	1812.45681711699	903.740639906451	191.446949856709	1937.61344285774	1345.18438330573	131.898119622694	2459.04381231969	910.803989079986	145.636809557488	2040.94599586464	1062.11548049336	150.340216986754	1938.72167492062
823.437067993845	156.381194429719	1363.84322520045	1351.87432396748	237.154948141959	1967.94871381621	848.041082486002	184.869454374001	1481.61086810398	1423.27686673661	155.540727369821	1940.98828262742	1000.36813638996	173.893233595957	1846.16452174385	1160.1321368403	144.515900541708	1717.77496213411	1020.04195857037	144.189463360493	1978.44836151383	1199.0754374366	186.274601748963	1876.14095365575	817.522684120952	157.756684411436	1299.567560945	1770.62912421024	201.168151653932	2575.00801748024	1026.15976071863	202.509058042038	1759.56037437876	1360.8279670553	143.326872762363	1811.68557708534	902.981942855054	190.868910199626	1936.46904892561	1345.00722458264	131.791936726549	2458.40734176021	910.179101691656	145.46454936312	2039.60522496337	1061.91447364148	150.118809488912	1938.62590763967
823.116433603661	156.223491438873	1363.50078189002	1350.96265285641	236.157203906392	1967.26561150617	847.398557105447	184.388499127763	1480.88996092315	1423.22276748047	155.373029514325	1940.86604371816	999.865538418847	173.429222578953	1845.52330200831	1160.16109773978	144.339949787868	1717.61429283048	1019.91882870079	144.001327222897	1977.81732372218	1198.64749928729	185.750994656328	1875.34820293043	817.520161898999	157.599409135651	1298.84802389733	1770.28125865027	200.636741678029	2573.59259441159	1025.5185154598	201.926657861699	1758.09161126539	1360.64019518082	143.224463328309	1810.69979376265	902.231766175262	190.339092004255	1935.10707014319	1344.81189015746	131.679104712785	2457.49638764315	909.531072588056	145.303093540407	2037.95395692264	1061.75611868029	149.903568041094	1938.43973033384
822.830906884259	156.09397975351	1362.97572579765	1350.23493716361	235.251553824152	1966.53494894541	846.831183593709	183.945336398667	1480.02345626265	1423.26966058067	155.238867576711	1940.5551019287	999.334281190548	173.00782054768	1844.60741212056	1160.14931037805	144.185067100016	1717.24360964055	1019.68861989234	143.816514114655	1976.89611541983	1198.19967270912	185.273274526066	1874.34435492227	817.411944448157	157.453847166669	1297.97616367949	1769.83228349395	200.164721759665	2571.98788765096	1024.82982492644	201.38610653983	1756.47468639798	1360.29555803687	143.138736624767	1809.51058707128	901.492578921979	189.852510144767	1933.51004926309	1344.58004740036	131.560557081733	2456.29677580528	908.84918812633	145.149538075452	2035.95868076639	1061.6269726525	149.697966483604	1938.14198817406
822.596176941547	155.989831412063	1362.30413626441	1349.67309866325	234.424495157876	1965.76356262121	846.344696437589	183.540727369821	1479.0555282884	1423.40840466635	155.13163707441	1940.09823644092	998.783638828657	172.629108519157	1843.44651035124	1160.10152693213	144.046700926337	1716.65756097701	1019.39566279144	143.641459809738	1975.81177679062	1197.74178834651	184.83960393526	1873.16794284655	817.201338134961	157.319773212005	1296.94885603531	1769.26021966485	199.745538371841	2570.1585695924	1024.09359467517	200.888671257085	1754.69067745479	1359.77966491386	143.070480148294	1808.08718415764	900.758658132485	189.4041161341	1931.66034040944	1344.27654979496	131.440770141163	2454.78243183802	908.117787392867	145.001327222897	2033.59487525771	1061.49833866002	149.505272814309	1937.69714392745
822.413757970055	155.90437407333	1361.53028749239	1349.23979316404	233.668966945824	1964.97188226836	845.926300346879	183.174470797019	1478.02222946099	1423.60979417376	155.042050674087	1939.57440059229	998.22088074496	172.291953063034	1842.08358077254	1160.03675413078	143.918923548709	1715.88864949397	1019.08119451353	143.482276640875	1974.6826183	1197.28815746591	184.446573893024	1871.88131626638	816.896227970306	157.197361077	1295.75216034423	1768.56071654352	199.36928224468	2568.04088998107	1023.31385401129	200.432457694929	1752.7017729997	1359.09776160218	143.016400054859	1806.37084765369	900.011553124432	188.990093269924	1929.52543313134	1343.84949211676	131.326872762363	2452.88236116572	907.312848488051	144.856439399695	2030.82941055827	1061.32370126618	149.326872762363	1937.03865908955
822.26657491327	155.829067028529	1360.69217004539	1348.88024041542	232.981868737068	1964.18348074693	845.548178788648	182.844798361885	1476.94298306184	1423.82070080886	154.95927654881	1939.06454705161	997.650531512528	171.99422476525	1840.56839058875	1159.97723908054	143.797037411537	1715.00635730117	1018.77678138266	143.344600040119	1973.60319877613	1196.85139334014	184.089534648946	1870.56050257518	816.511357502439	157.084936148072	1294.37982721272	1767.75343863123	199.0250319758	2565.59051747235	1022.49911992177	200.014658240176	1750.48122243152	1358.28444416355	142.971026351418	1804.31650925261	899.227269568972	188.60673098915	1927.07549240785	1343.24421937287	131.225790551206	2450.50076110676	906.411344524437	144.713306514452	2027.63642390145	1061.05074452072	149.16128787806	1936.08096234318
822.122684016482	155.755792769687	1359.80013678517	1348.52985588178	232.363931250222	1963.39802640928	845.170979364602	182.549411042139	1475.80735825865	1423.96613609449	154.874340400738	1938.60157766722	997.075863725347	171.732373432958	1838.95793442821	1159.9387428931	143.678039347749	1714.10289405309	1018.50500524655	143.231768026354	1972.64007957536	1196.43821936886	183.763351459506	1869.28241993123	816.066693020681	156.979566525074	1292.84377247449	1766.88335253569	198.70323370598	2562.82021267636	1021.66358830372	199.630059778369	1748.03517231352	1357.40300688072	142.927093271276	1801.9366503455	898.383198032669	188.250446563322	1924.29544264365	1342.42035235727	131.143386877018	2447.54968628827	905.397138182812	144.572306884342	2024.01474371911	1060.63202298021	149.005977475148	1934.74068799561
821.94022636181	155.677777489888	1358.83660082734	1348.12054270677	231.814953155099	1962.58883403814	844.752967014374	182.284770336899	1474.58362920345	1423.96115957334	154.780186923941	1938.15136158346	996.499278183707	171.500548093006	1837.30913862988	1159.92017260391	143.560644995112	1713.26680964975	1018.27696249211	143.143386877018	1971.82848195128	1196.04216599127	183.46314767117	1868.10762147635	815.583459779568	156.876872874622	1291.18469620503	1766.00730213436	198.397252579425	2559.82871219503	1020.82286922679	199.273020534291	1745.42060765104	1356.53168310058	142.878744271894	1799.3282390637	897.467376283631	187.916645066599	1921.20387766456	1341.37120031356	131.082229950902	2444.00391620064	904.271793128304	144.434997813703	2020.0091279679	1060.04056284462	148.857766622592	1932.9724349941
821.682567923827	155.592050786346	1357.76604736756	1347.59900185657	231.333052477908	1961.7095220623	844.26329852251	182.047483974859	1473.23643296043	1423.73804247177	154.674454460534	1937.61883306587	995.926271963522	171.290799563424	1835.67534733271	1159.90608111871	143.446659702933	1712.5580971301	1018.09706666648	143.077579698651	1971.17008276609	1195.65125486773	183.184639384955	1867.06629236318	815.082276140057	156.773258189581	1289.46948458682	1765.17894797159	198.103728790864	2556.78690638477	1019.9915228166	198.938405764422	1742.73989726516	1355.74458905643	142.821338090192	1796.65955845052	896.484794421865	187.600736358548	1917.86645458596	1340.13013436624	131.041506499712	2439.94546539734	903.056048137828	144.304420763304	2015.72898036354	1059.27939777007	148.714633737349	1930.80523083839
821.330725919196	155.49807293272	1356.5653234722	1346.93961768257	230.911388588774	1960.72389170877	843.691800483227	181.834241392411	1471.75308073882	1423.26850792531	154.559229858837	1936.89780406676	995.364596640486	171.095480699693	1834.10103050053	1159.86923978081	143.339687930007	1711.9889230064	1017.9554673308	143.028429474207	1970.63256540884	1195.24843764903	182.924024233696	1866.15278691286	814.584615317005	156.667616768038	1287.78530937865	1764.44304353858	197.821970399142	2553.90917575195	1019.18082505749	198.62365806293	1740.12529856964	1355.09449720251	142.755792769687	1794.13657615642	895.454598481277	187.298536763756	1914.39222445553	1338.76438322313	131.017727277756	2435.56599860715	901.7872435711	144.185067100016	2011.34098686972	1058.38234248859	148.576957136592	1928.35193516535
820.894817430178	155.400046689974	1355.2538535265	1346.15878980727	230.542054592718	1959.63097820258	843.056899999619	181.641459809738	1470.16673263886	1422.58353249419	154.440770141163	1935.91983595883	994.826645170535	170.905846523203	1832.62238634992	1159.78333818927	143.244469088175	1711.52537759329	1017.83576712378	142.987970580652	1970.16090365816	1194.82179037312	182.678837513898	1865.33199262276	814.107541543442	156.560644995112	1286.21850440174	1763.81450111599	197.552930512456	2551.38606694614	1018.3938645779	198.326966237963	1737.70051433725	1354.593276852	142.684179205327	1791.9370216696	894.405831435288	187.005977475148	1910.91855421091	1337.36125016815	131.004650252251	2431.13273222671	900.511840608146	144.082229950902	2007.04565171855	1057.40660546757	148.446747616311	1925.79089094344
820.416854536898	155.303093540407	1353.90710638397	1345.31384652216	230.214396082059	1958.47898008369	842.402838670034	181.465876586016	1468.56270634788	1421.76980297862	154.326872762363	1934.69383733377	994.330697230953	170.715177911724	1831.27157409018	1159.6398416718	143.163306402193	1711.10573747354	1017.72227589346	142.947526746202	1969.70322020015	1194.37768067861	182.446747616311	1864.55687185434	813.668408315768	156.457082282644	1284.84947763584	1763.28814745327	197.299226336678	2549.35561803433	1017.62984165722	198.048606050069	1735.56869967894	1354.2174199028	142.611703112635	1790.17948510284	893.369835312514	186.721844959794	1907.59796588263	1336.00286959757	130.996676970646	2426.94093979899	899.274556853218	143.999826276713	2003.05212823115	1056.41540864924	148.32819998526	1923.33460853446
819.963481631269	155.214040748598	1352.66249095414	1344.49426880879	229.917972289496	1957.37455025617	841.792979295829	181.303093540407	1467.0796975878	1420.95828694482	154.225790551206	1933.33511851868	993.902250374042	170.518506407647	1830.09397343878	1159.45487910413	143.098013173577	1710.68239557676	1017.61069930364	142.898663797069	1969.24244430037	1193.94234252674	182.226319607954	1863.80368848886	813.285738470364	156.363467151963	1283.74008648828	1762.85209234991	197.063100981196	2547.88386645332	1016.89140780166	197.789670662294	1733.79494954821	1353.92914134734	142.543083795752	1788.90480241261	892.378270792492	186.446747616311	1904.58201644133	1334.75621535392	130.988250197392	2423.26474375349	898.115014860962	143.939097065658	1999.55050579541	1055.46666203767	148.225790551206	1921.18907516864
819.612016443397	155.138736624767	1351.69917115994	1343.80112820236	229.644091537856	1956.46108087715	841.296195648724	181.149538075452	1465.88598007464	1420.29372914288	154.143386877018	1932.0500657434	993.573085972083	170.316437764798	1829.14392513655	1159.27404618053	143.046700926337	1710.24309241906	1017.5176020496	142.836693597807	1968.80752582174	1193.56360908936	182.017727277756	1863.08041921525	812.979258053324	156.285192539364	1282.93571104942	1762.50087596719	196.847598034656	2546.98332879404	1016.18976667654	197.549955216514	1732.41812102386	1353.69329826806	142.481493592353	1788.10632517119	891.462075102433	186.184639384955	1902.01518216512	1333.67237371887	130.976220778044	2420.33085222343	897.068261917209	143.899179646705	1996.70207161567	1054.60764596488	148.143386877018	1919.52457522134
819.433356858255	155.080902728005	1351.20725993777	1343.32252668674	229.386917913092	1955.89895238564	840.971355076016	181.001327222897	1465.15171137604	1419.90540523345	154.082229950902	1931.10691017532	993.377918134765	170.113037161452	1828.49768031232	1159.16969769803	143.005977475148	1709.8482025811	1017.48169247269	142.761508386973	1968.48940467362	1193.30638159156	181.822491589803	1862.45346355765	812.77039128333	156.225790551206	1282.46855651515	1762.24632663629	196.654536835243	2546.64822524137	1015.54704011569	197.32819998526	1731.45807874734	1353.49982824972	142.42795497352	1787.76147010573	890.648321508327	185.940424288555	1900.01277510849	1332.78211247826	130.95927654881	2418.29236733514	896.159833655645	143.874440731969	1994.6136890668	1053.86456441889	148.082229950902	1918.44410060495
819.472694499486	155.041506499712	1351.35011884167	1343.10868712149	229.143915933765	1955.8302652726	840.849805029398	180.856439399695	1465.0142214245	1419.87942933633	154.041506499712	1930.78647154587	993.345698921811	169.916645066599	1828.2334718326	1159.22177420047	142.972353574315	1709.61626201341	1017.55184885645	142.676712124852	1968.40882047237	1193.23485122597	181.642787032635	1862.02932770807	812.678033033478	156.185067100016	1282.35939486824	1762.12006701393	196.486926893126	2546.87683610091	1014.99336248125	197.1239101739	1730.9250911885	1353.37111585449	142.381368153005	1787.86536971793	889.964917069579	185.72034401361	1898.65793495939	1332.1117293099	130.938843073884	2417.24031514368	895.412462852039	143.85900036989	1993.34086773475	1053.25167742413	148.041506499712	1917.98618155854
819.745587315639	155.017727277756	1352.2257795781	1343.16857364044	228.915317843702	1956.34457677065	840.935110689504	180.714633737349	1465.53985873459	1420.25415797053	154.017727277756	1931.32119159611	993.491929008872	169.739472983316	1828.42179570446	1159.50313329943	142.943493326134	1709.71255425089	1017.77367137003	142.590196544528	1968.69262889117	1193.39952913236	181.482276640875	1861.94455810135	812.714253984455	156.159532940102	1282.61932411872	1762.15871439947	196.347254485912	2547.68990653034	1014.55666509943	196.936650826464	1730.81895956271	1353.35150918926	142.340476806789	1788.4505889891	889.428791997351	185.528977567213	1897.97617837478	1331.67580493747	130.917596325812	2417.18664555422	894.83685363814	143.846444535045	1992.86667798268	1052.76593210926	148.017727277756	1918.11057701843
