Light	Light	Light	Light	Light	Light	Light	Light	Light	Light	Light	Light	Light	Light	Light	Light	Light	Light	Light	Light	Light	Light	Light	Light	Light	Light	Light	Light	Light	Light	Light	Light	Light	Light	Light	Light	Light	Light	Light	Light	Light	Light	Light	Light	Light	Light	Light	Light
Optode1-730nm	Optode1-Ambient	Optode1-850nm	Optode2-730nm	Optode2-Ambient	Optode2-850nm	Optode3-730nm	Optode3-Ambient	Optode3-850nm	Optode4-730nm	Optode4-Ambient	Optode4-850nm	Optode5-730nm	Optode5-Ambient	Optode5-850nm	Optode6-730nm	Optode6-Ambient	Optode6-850nm	Optode7-730nm	Optode7-Ambient	Optode7-850nm	Optode8-730nm	Optode8-Ambient	Optode8-850nm	Optode9-730nm	Optode9-Ambient	Optode9-850nm	Optode10-730nm	Optode10-Ambient	Optode10-850nm	Optode11-730nm	Optode11-Ambient	Optode11-850nm	Optode12-730nm	Optode12-Ambient	Optode12-850nm	Optode13-730nm	Optode13-Ambient	Optode13-850nm	Optode14-730nm	Optode14-Ambient	Optode14-850nm	Optode15-730nm	Optode15-Ambient	Optode15-850nm	Optode16-730nm	Optode16-Ambient	Optode16-850nm
413.02955715648	142.716482416945	785.244406580833	1319.66589015528	174.549955216514	2022.7714824696	1567.90834805994	142.988250197392	2710.5820628392	1865.8610865806	157.175054304917	2930.26498751521	1354.30863949107	132.1138973788	2653.48661467218	1292.89006637188	146.113897378801	2015.60444326164	731.097893750332	130	1322.64290297355	919.627149008625	144	1212.66630041127	940.502970837894	143.025106444853	1723.20123206755	641.509581549001	158.379873173024	779.685919533789	1119.00429444643	153.828979115151	1813.18694019283	586.584646991057	146.828979115151	680.121564700402	1206.94939912174	142.995349747749	2304.67754761522	1310.43185962413	135.179616643789	2260.49772339043	962.022681204752	141.183312162058	1998.88776627211	1080.18514703068	146.056506673866	1683.44772910425
412.644085738421	142.73561138665	783.686770402413	1317.98095454494	174.774597830332	2018.52112433393	1566.75647624356	142.995349747749	2705.91620283106	1864.5231113989	157.200863391861	2925.51196091273	1352.4363358912	132.101082211157	2648.39525932558	1291.81149741338	146.101082211157	2013.43859412451	729.941024545391	130	1319.58311844409	918.135233656398	144	1210.2538604556	939.08662776417	143.013077025505	1719.19310197112	640.997385939467	158.403141919998	778.330993022446	1117.037976653	153.870488314637	1807.45804134941	586.47785871446	146.86916109174	679.299548090061	1204.92055291818	142.998672777103	2298.22107100421	1309.42311790938	135.15462082999	2256.45257962217	961.095947533671	141.257284255818	1995.45255961832	1079.39905801539	146.039396228293	1680.46545563758
412.216480536141	142.746061491211	781.896738252917	1316.02527202821	175.011749802608	2013.19799934581	1565.44250809102	142.998672777103	2700.34544286426	1863.08734618159	157.216306812854	2920.00133946281	1350.17994436071	132.082403674188	2641.86561175393	1290.48492787665	146.083730897085	2010.51924906266	728.461482084947	130	1315.48226125138	916.378627342213	144	1207.16728840327	937.411760230871	143.010627727398	1714.11135482972	640.287117745349	158.412323511502	776.496301819837	1114.63685301902	153.910496775454	1800.31005148218	586.243099026869	146.904519300307	678.146387425619	1202.50210871834	143	2290.50597185239	1308.14514357004	135.124861433113	2251.42586693047	960.159577466978	141.344250268879	1991.69159316391	1078.41549893478	146.023779221956	1676.80144239839
411.756407701985	142.752435681801	779.938322179861	1313.84228431153	175.256486089669	2006.96299154961	1563.94932210124	143	2694.02543327861	1861.50323422031	157.220957065105	2913.76006655782	1347.61935503125	132.061156926116	2634.1554688896	1288.87652240834	146.067134401264	2006.76906996399	726.713019006021	130	1310.51531616279	914.365343987434	144.001327222897	1203.42231911947	935.551082980818	143.017727277756	1708.20060737988	639.349941779902	158.411106919659	774.17439293893	1111.9423863438	153.950592876492	1792.16037693787	585.835803307992	146.934192821633	676.634144360262	1199.84698862259	143	2282.00876284674	1306.64109362058	135.095480699693	2245.62343886208	959.221084164333	141.440770141163	1987.7002553717	1077.25611398393	146.011749802608	1672.56300905547
411.279841071333	142.75991396519	777.896975446913	1311.52293071166	175.504050407868	2000.10362571865	1562.32232562523	143	2687.25080221228	1859.7929448621	157.218590669617	2907.00068269896	1344.8674052843	132.04072345119	2625.63158834814	1287.02026009615	146.058450728946	2002.28006058994	724.78015840683	130	1304.93591181356	912.157097583354	144.005977475148	1199.14762639499	933.582556599597	143.035529024564	1701.74967329907	638.208192163055	158.407954775876	771.44764132698	1109.10090894272	153.993478350477	1783.46373808347	585.256536355263	146.957949325913	674.81106914542	1197.09727980095	143	2273.1726293013	1304.99621260816	135.071784653514	2239.36442942332	958.296571626652	141.54185235232	1983.59867052729	1075.97185778742	146.004650252251	1667.93157893952
410.808613490859	142.773270607435	775.875152203584	1309.19714974584	175.753338664406	1993.00616563982	1560.66586064845	143	2680.42369223008	1858.05063120986	157.216560804629	2900.09797864669	1342.06483127582	132.025106444853	2616.7609233567	1285.01740336599	146.065285721668	1997.30847834495	722.771067842046	130	1299.05858649889	909.864501521297	144.017727277756	1194.573235021	931.588826982401	143.064502673146	1695.06618182162	636.930572798889	158.412594658731	768.470525589698	1106.25917555743	154.04072345119	1774.67481045497	584.550182097541	146.976220778044	672.788189285333	1194.38845313098	143	2264.39870871117	1303.33007962049	135.059777951842	2233.04057136747	957.414485017708	141.641633533025	1979.52365961045	1074.63796861932	146.001327222897	1663.14392336166
410.368205538788	142.794486355888	773.976208737009	1307.01435075128	176.005977475148	1986.10130710388	1559.11592753587	143	2673.98500109815	1856.41738580636	157.224035613248	2893.51420892725	1339.36414141826	132.016400054859	2608.06765381377	1283.01202202184	146.09397975351	1992.22804013651	720.802941687002	130	1293.22922841342	907.626762399585	144.041506499712	1189.99559830798	929.650350988038	143.103207600203	1688.46468129099	635.61493576605	158.43340339192	765.448777694472	1103.55103664611	154.091457797595	1766.22701011962	583.789474221331	146.989577420289	670.723224798556	1191.84005276992	143.001327222897	2256.03232536142	1301.77655540316	135.065285721668	2227.05168138775	956.609239285181	141.734284163753	1975.60939413745	1073.34071243531	146.001327222897	1658.45245683486
409.981885892522	142.824945695083	772.294340258048	1305.12116862822	176.267043059144	1979.80693737357	1557.81083956264	143.001327222897	2668.34393188516	1855.04779450867	157.250896996059	2887.71258581886	1336.91109815335	132.017727277756	2600.07091413376	1281.1621760764	146.148037129269	1987.45546385857	718.988062187728	130	1287.78521641138	905.58803575287	144.082229950902	1185.72619017812	927.843289664489	143.149538075452	1682.25083118645	634.371435603325	158.475106332594	762.604409916725	1101.09678879229	154.144887823201	1758.51422395773	583.059869013674	147.001327222897	668.789856235784	1189.55775388794	143.004650252251	2248.37400424281	1300.46433121747	135.09397975351	2221.76310470336	955.91816159899	141.814932899984	1971.98472252112	1072.16824722179	146.005977475148	1654.10448090332
409.668341713703	142.862844589904	770.902096970931	1303.63952096303	176.542106344095	1974.48124612939	1556.86379897981	143.004650252251	2663.82727665614	1854.07697104155	157.304674755078	2883.08301293773	1334.8310477416	132.031083920001	2593.22491728866	1279.6118287402	146.227117774103	1983.37235373533	717.421563916527	130	1283.02030775838	903.876229504461	144.143386877018	1182.04424044851	926.226524632328	143.199885940204	1676.68266635179	633.295677557725	158.537456091844	760.138339122651	1098.98448330129	154.198558717307	1751.84883104646	582.436565494947	147.016400054859	667.144505924724	1187.61491473586	143.013077025505	2241.63953147602	1299.48352742341	135.148037129269	2217.42892827946	955.366576699773	141.880392344938	1968.73738575593	1071.18848111934	146.017727277756	1650.29570903533
409.440383311441	142.905566906464	769.841081675488	1302.65661940173	176.836166440944	1970.37968699328	1556.34376217682	143.011749802608	2660.62674934639	1853.59765498997	157.389973743559	2879.8757115563	1333.21488033514	132.057123506049	2587.85031982756	1278.46618613418	146.326872762363	1980.25596445673	716.169932623372	130	1279.14405079776	902.58188362289	144.225790551206	1179.14926160302	924.840052544315	143.250508614521	1671.94700910773	632.458411364163	158.616353364885	758.199577073275	1097.27177040073	154.250508614521	1746.43824996862	581.973298854888	147.040179276815	665.900838631797	1186.05554433264	143.029756697104	2235.95894676597	1298.88496280571	135.227117774103	2214.18055669358	954.971039717663	141.929519851706	1965.92308818336	1070.45036131771	146.041506499712	1647.1630110496
409.303119357744	142.950872493232	769.120155236343	1302.2169215056	177.149438821218	1967.64319812273	1556.26804141591	143.023779221956	2658.78809662316	1853.64249557708	157.506055862831	2878.17677494733	1332.10286750181	132.098013173577	2584.07546087531	1277.77386546148	146.44209736406	1978.22790637134	715.263915284171	130	1276.24959738999	901.747010346311	144.326872762363	1177.13338348146	923.695081052743	143.298186992516	1668.13757307167	631.893649280615	158.702883934741	756.868344364941	1095.9715668092	154.298186992516	1742.35966073994	581.69030559098	147.077579698651	665.11402444906	1184.88259273504	143.058450728946	2231.35781727996	1298.66533443639	135.326872762363	2212.01959502086	954.731314575486	141.963143752539	1963.56105869119	1069.97445113695	146.082229950902	1644.77516206991
409.252908901774	142.995349747749	768.719135358739	1302.32181028538	177.476843340103	1966.29933424547	1556.60275745953	143.04072345119	2658.21760925749	1854.18287341276	157.647232137199	2877.9088819201	1331.48813030573	132.151556599585	2581.82891859484	1277.52551494755	146.565207333984	1977.24204489844	714.696495181614	130	1274.30595721512	901.362019026059	144.440770141163	1175.97461639331	922.77147389246	143.33888772603	1665.23725850497	631.594778104092	158.788613697196	756.145292905591	1095.05022739186	154.340214948927	1739.55048898136	581.573215118869	147.13163707441	664.772442418369	1184.05806777571	143.102663425828	2227.74574797537	1298.77251439028	135.440770141163	2210.82145876718	954.631015289172	141.983599945141	1961.62909041348	1069.75434775461	146.143386877018	1643.128967552
409.280183197682	143.036050481263	768.596140111724	1302.92961358908	177.808522922548	1966.28385658751	1557.26561171874	143.061156926116	2658.71516623698	1855.12723207191	157.80343708915	2878.8652952212	1331.31416377218	132.216039613968	2580.86900280626	1277.65650649605	146.690854515393	1977.11321040207	714.42566586737	130	1273.17258897513	901.370156900277	144.559229858837	1175.55368868068	922.031068994745	143.371617215767	1663.121835499	631.524250338507	158.865913627483	755.955205401513	1094.4469458972	154.376267468017	1737.8178222235	581.581153386869	147.20201132925	664.80163892297	1183.51380769605	143.16463362509	2224.94489307092	1299.11782267422	135.559229858837	2210.3804526853	954.643114041357	141.994022524852	1960.08079189553	1069.76388303329	146.225790551206	1642.17176555997
409.369392875734	143.07065387158	768.699765896476	1303.96340171599	178.131798379843	1967.46728023865	1558.14274995056	143.082403674188	2660.02339375715	1856.33913913812	157.959820723185	2880.76362389979	1331.48774184172	132.287214676209	2580.82967570962	1278.06170606851	146.815715948506	1977.55767724353	714.383364642649	130	1272.6291231489	901.678757899772	144.673127237637	1175.68463521565	921.418995384007	143.396728467794	1661.5828516415	631.621789761779	158.930847074603	756.16769663297	1094.07631151542	154.408478270402	1736.87506594739	581.65632398686	147.286149311173	665.082068284062	1183.16477328131	143.244469088175	2222.7297429616	1299.59645392633	135.673127237637	2210.46337642979	954.734292386293	142	1958.8628370207	1069.964880979	146.326872762363	1641.82179682243
409.502394072828	143.096431958906	768.981647151323	1305.33091074034	178.434521518787	1969.68801709609	1559.11708058114	143.101082211157	2661.88028054048	1857.67238882994	158.10258315734	2883.3066732114	1331.89243238106	132.359069109067	2581.32038800703	1278.61487201804	146.938843073884	1978.28245239869	714.487442156579	130	1272.43387821064	902.176109231726	144.774209448794	1176.16653789783	920.879228246161	143.41566369631	1660.36890744873	631.818854368567	158.982272722244	756.627358413978	1093.85145086245	154.439442918267	1736.39732701856	581.739512600118	147.37828599215	665.475941903881	1182.92291678567	143.339687930007	2220.86942835923	1300.10258393227	135.774209448794	2210.85126402742	954.870307153075	142.004650252251	1957.9231360161	1070.31200053196	146.440770141163	1641.98619510674
409.66333691725	143.112570155904	769.405370880929	1306.93665943618	178.708140412566	1972.77963613666	1560.08708178133	143.1138973788	2664.07093749816	1858.99585572785	158.221130788391	2886.24452324212	1332.41694425213	132.425562919438	2582.00629104562	1279.20552943222	147.061156926116	1979.05370583619	714.659596443813	130	1272.37518752616	902.757998788186	144.856613122982	1176.82673479124	920.369778418332	143.432250647357	1659.23456273145	632.057550772869	159.024323396331	757.185197932934	1093.70616232553	154.472974098547	1736.08186238665	581.787249504918	147.472175932398	665.854335664618	1182.71684245562	143.445332480036	2219.17529883446	1300.55229716864	135.856613122982	2211.37703288934	955.022705183454	142.013077025505	1957.22395129307	1070.76325163511	146.559229858837	1642.5773950051
409.838279619652	143.118459717673	769.946274891957	1308.69319827211	178.947848617435	1976.57442287219	1560.98092149155	143.118459717673	2666.44018203899	1860.21565632437	158.309660085674	2889.3930346455	1332.9724272289	132.480345654965	2582.66253171246	1279.75805880963	147.182956828598	1979.74410382787	714.842823530209	130	1272.31391152445	903.345806673157	144.917770049098	1177.55567049771	919.867721234611	143.448416369205	1658.01232896225	632.298911857958	159.061156926116	757.735098941729	1093.60062372432	154.510900518218	1735.72655226278	581.780091537826	147.560295223872	666.133607461684	1182.50707270695	143.554667519964	2217.56302035029	1300.90173761032	135.919097271995	2211.97545736944	955.175868978235	142.029756697104	1956.77079866417	1071.28744584163	146.673127237637	1643.53845961342
410.018159780043	143.1138973788	770.589603306093	1310.53376495682	179.15346733038	1980.90656552215	1561.77047905211	143.1138973788	2668.89484894819	1861.29433541318	158.37003369723	2892.64334098542	1333.50699666616	132.517723359125	2583.1932794644	1280.2440826686	147.304495232357	1980.33971350591	715.008553503546	130	1272.20124724301	903.899576275656	144.959820723185	1178.31435998415	919.383272360288	143.465221005592	1656.66033439488	632.535324554393	159.098803729047	758.238182198662	1093.53587656603	154.553602154928	1735.27636588853	581.729307488502	147.636532848037	666.295701427892	1182.2936273987	143.660312069993	2216.05669070844	1301.15334704169	135.963143752539	2212.66957571111	955.331133223173	142.058450728946	1956.59996940441	1071.86721034074	146.774209448794	1644.83802807042
410.197511866197	143.101082211157	771.324541877561	1312.399560907	179.327997744862	1985.60339874721	1562.45202415761	143.101082211157	2671.38361003557	1862.23201149609	158.409691783384	2895.94662715996	1334.01193540539	132.533594495178	2583.62625242215	1280.68346035515	147.423042863408	1980.91718536754	715.164827109971	130	1272.08161387772	904.422604260536	144.986922974495	1179.13080085035	918.94927271884	143.482450364162	1655.27674468177	632.781799563013	159.142588710868	758.721991170206	1093.53945896355	154.599932630177	1734.82788804261	581.667546850752	147.697429954119	666.385815110467	1182.11027382399	143.755530911825	2214.77668715353	1301.34660393081	135.994022524852	2213.54735138216	955.501079267785	142.102663425828	1956.76978402689	1072.49623257457	146.856613122982	1646.46031404314
410.373211499608	143.082403674188	772.141273036363	1314.23572591988	179.475689840492	1990.48395505386	1563.04111012302	143.082403674188	2673.88905302913	1863.05857554292	158.439442918267	2899.30140634052	1334.51218391966	132.526154939553	2584.060984897	1281.12915032091	147.534123413984	1981.597666651	715.347340316622	130	1272.05971389385	904.949368639759	145.007099550357	1180.06841428044	918.622131750186	143.498184604808	1654.08775698724	633.073914597378	159.196127329702	759.268465860527	1093.66012999766	154.647611008172	1734.60412672441	581.642193017399	147.742715744182	666.499677068071	1182.01453556411	143.83536637491	2213.9039495304	1301.5445392347	136.017801746809	2214.71766040758	955.706856995978	142.16463362509	1957.33719538529	1073.17582881202	146.917770049098	1648.38900335573
410.544484080438	143.061156926116	773.024222330852	1315.98774268081	179.6013322843	1995.34778247105	1563.56052134905	143.061156926116	2676.39084754933	1863.81817913481	158.470433362668	2902.71133885136	1335.0515188266	132.496216791018	2584.6399731065	1281.64542330725	147.632403786447	1982.50917592336	715.606839019702	130	1272.27271620862	905.53001785043	145.02710225131	1181.19950836037	918.465811223595	143.510968772833	1653.3903807372	633.451367713531	159.261846594691	759.983303739059	1093.94743103638	154.693931163652	1734.88623199335	581.702010717816	147.775007614943	666.754881459735	1182.07037862387	143.897336574172	2213.63633486796	1301.81683455548	136.039396228293	2216.2782125351	955.973322784778	142.244469088175	1958.34757340016	1073.91109859374	146.958493500288	1650.59942338601
410.712637175844	143.04072345119	773.948919781906	1317.60069505172	179.707873213679	1999.98215762148	1564.03307494557	143.04072345119	2678.84956885632	1864.5556596908	158.511156813857	2906.15979501596	1335.67184445251	132.447069487544	2585.49655295322	1282.28426300025	147.711725299781	1983.74488470399	715.992375137701	130	1272.84741525202	906.205339555515	145.052473253798	1182.57258910766	918.53925799654	143.521852154676	1653.47838987483	633.945014863065	159.339687930007	760.959776869765	1094.43698534878	154.737629910783	1735.93097088817	581.885968208368	147.798786836899	667.257515467372	1182.33136536752	143.942876493951	2214.12314387725	1302.22340145004	136.062484149013	2218.27208700475	956.32201794188	142.339687930007	1959.80405463474	1074.70819213997	146.982272722244	1653.04336933038
410.881452368949	143.023779221956	774.888394877901	1319.02793972538	179.796661447853	2004.19076392724	1564.48430798684	143.023779221956	2681.22347404974	1865.31829663605	158.566429740426	2909.61800830188	1336.403509306	132.383913696059	2586.72718268303	1283.07498558325	147.769559196543	1985.34440759244	716.536027504192	130	1273.86511275958	906.994830695087	145.084936148072	1184.19444975775	918.880942656572	143.533601957285	1654.56722737259	634.565417678583	159.42795497352	762.249269978458	1095.13494018647	154.778244768746	1737.90122167101	582.212646104652	147.818968219936	668.072643871016	1182.82543213766	143.976220778044	2215.44630783782	1302.79968409449	136.088381149336	2220.69078299783	956.766765501898	142.445332480036	1961.68283450141	1075.56949023481	146.994022524852	1655.66430527549
411.056071092718	143.010422579711	775.816265067997	1320.23835010737	179.86836292559	2007.8201196714	1564.9417292863	143.011749802608	2683.47743849186	1866.14583940817	158.635482334591	2913.04587558713	1337.25683357343	132.312992763535	2588.39365061684	1284.01991970031	147.804938035333	1987.30519505968	717.243728223186	130	1275.35112499004	907.888508100559	145.123127125378	1186.03153773924	919.503353724345	143.548493603854	1656.73948612937	635.300233598857	159.521846592455	763.845370663167	1096.0210569663	154.815710386284	1740.82032371895	582.680031898848	147.838162385343	669.211923993	1183.55218590039	144.003323029354	2217.59838451945	1303.55699745808	136.117482266015	2223.47718947074	957.314610173836	142.554667519964	1963.93317591466	1076.49624817947	146.998672777103	1658.40598770321
411.240085896868	142.998672777103	776.712101667446	1321.21907149233	179.922420301349	2010.78608951925	1565.42757237796	143.004650252251	2685.59423008264	1867.06180775814	158.713306514452	2916.39930434159	1338.21501265884	132.240609391394	2590.51211212463	1285.08882609028	147.820816899532	1989.58551476232	718.089103016141	130	1277.26675489611	908.842833317443	145.162239137273	1188.01347544263	920.385666198013	143.568459605414	1659.92214173932	636.114788486699	159.614409309805	765.684149619582	1097.04594850233	154.850573596635	1744.56475006156	583.264958605062	147.857673146993	670.63080190029	1184.47696108873	144.030878772314	2220.48018584853	1304.47791234795	136.149426403365	2226.53690211288	957.96054469739	142.660312069993	1966.48724436066	1077.48386956798	147	1661.22022322157
411.436902937435	142.984927168038	777.568990237046	1321.98269967475	179.961147946082	2013.10535686693	1565.96539100801	143.001327222897	2687.60877891263	1868.07849973122	158.791936726549	2919.66799929062	1339.24459507529	132.173317297408	2593.06725542034	1286.23406429826	147.823089553381	1992.12455627834	719.021745442253	130	1279.52333793488	909.797503432749	145.196301052989	1190.05563521764	921.476409989154	143.593037131462	1663.88784589536	636.959432075609	159.697450633968	767.65354205656	1098.14564025738	154.882517733985	1748.8785716902	583.930239807996	147.875418183627	672.236933136832	1185.53864946458	144.063175450249	2223.9214793672	1305.52041584776	136.182962390819	2229.7654928371	958.688609742502	142.755530911825	1969.2718246498	1078.52056685337	147	1664.07836701039
411.646633556515	142.964470975436	778.391628178715	1322.55996957287	179.986922974495	2014.88571826123	1566.56757853889	143	2689.59170673161	1869.18473501504	158.86259059813	2922.86477957995	1340.30077223362	132.114957402811	2596.01557098526	1287.39543001166	147.818968219936	1994.85224593166	719.975677392927	130	1281.99974438457	910.684925632537	145.220869151727	1192.0748209685	922.697742369218	143.61995350767	1668.29190604241	637.778021217036	159.762459646186	769.616197139757	1099.24692406021	154.911618850664	1753.41564422361	584.629586958222	147.889166851605	673.905355081787	1186.65396210593	144.101880377306	2227.69728533576	1306.61849434331	136.215777756107	2233.05105682062	959.468489169645	142.83536637491	1972.20894355874	1079.58137293479	147	1666.95816727051
411.866973651494	142.935497326854	779.195901551792	1322.998737952	180.007099550358	2016.30861339382	1567.23713845131	143	2691.642444791	1870.35464731375	158.919097271995	2926.03105650159	1341.3343293049	132.069152925397	2599.28669837817	1288.5129988596	147.815186891758	1997.70117338491	720.881848694654	130	1284.56487669122	911.447408262437	145.232445009852	1194.00259060557	923.958603657769	143.646283785276	1672.72999957634	638.518041060819	159.803860252444	771.433443300556	1100.28422241772	154.937515850987	1757.79863152088	585.315549426247	147.896792399797	675.50050718111	1187.73197591596	144.143560600305	2231.55749741651	1307.6929982278	136.244642811461	2236.28471302291	960.259627508849	142.897336574172	1975.21737830238	1080.62982575443	147	1669.83571461204
412.093101063465	142.898119622694	779.997943113804	1323.35456780555	180.028429474207	2017.57516557642	1567.9653415386	143	2693.84387532224	1871.55064022116	158.958493500288	2929.20243064257	1342.30309757785	132.036856247461	2602.77374709786	1289.5379213354	147.815186891758	2000.59724953291	721.683828919766	130	1287.09065560065	912.048398336552	145.231291731438	1195.79112237869	925.163819270143	143.669260033908	1676.80755408556	639.136508812233	159.820539924043	772.98669258639	1101.20127144336	154.95927654881	1761.67587807144	585.945484492185	147.898119622694	676.895187193276	1188.68280232077	144.183485885345	2235.24560771995	1308.6590375545	136.26721678243	2239.34858598008	961.013559634692	142.941549271054	1978.20099259327	1081.61629361094	147	1672.66115211035
412.318790578018	142.855112176798	780.804867073434	1323.67510560887	180.057123506049	2018.85862681731	1568.72542601481	143	2696.22815437672	1872.72443387026	158.980945499347	2932.38588036372	1343.17527194232	132.016400054859	2606.34265409689	1290.43729496007	147.818968219936	2003.46631081287	722.342965849471	130	1289.47090696352	912.476422078961	145.220080274945	1197.41274169954	926.230988746241	143.686445131641	1680.20549115419	639.606479976526	159.814932899984	774.194387994992	1101.95797696747	154.976220778044	1764.77615986986	586.485573615678	147.893817103855	677.991797895444	1189.4382678157	144.214979589957	2238.531993237	1309.44822695954	136.280786768324	2242.12589903581	961.6872598804	142.970243302896	1981.05831963801	1082.48988249663	147	1675.35390635441
412.535613019311	142.811863862404	781.606490801302	1323.98943890795	180.09668595068	2020.25229916831	1569.4760145233	143	2698.74385456267	1873.82328230899	158.989372272602	2935.53139088803	1343.92858163962	132.005977475148	2609.82905553478	1291.19242214088	147.824416776278	2006.22428553522	722.844002399891	130	1291.62449904417	912.74335684688	145.202962588463	1198.85554760861	927.097197731463	143.69823368249	1682.73690785273	639.916289237519	159.794136584649	775.02418010974	1102.52855415173	154.988250197392	1766.9482303459	586.910496847315	147.887167986235	678.735821395692	1189.95250060027	144.232357096474	2241.23270474773	1310.01059784684	136.284830350272	2244.50160916629	962.2435309212	142.986922974495	1983.68344645312	1083.20049495819	147	1677.80117032278
412.733392522004	142.773270607435	782.374167526147	1324.29475790084	180.146906347334	2021.74444826647	1570.15963354898	143	2701.24976805477	1874.78877912662	158.986922974495	2938.52853876153	1344.54860822541	132.001327222897	2613.05865178318	1291.79660708373	147.825467151782	2008.78236409472	723.191494512282	130	1293.50076562814	912.874900179652	145.184284051494	1200.11688690084	927.72464929928	143.702790459141	1684.35717050288	640.067325401491	159.767293132287	775.489832952945	1102.89629007613	154.995349747749	1768.1654709995	587.204927533195	147.881452368949	679.118844444069	1190.21092408675	144.232357096474	2243.21572422867	1310.32998071181	136.279915540386	2246.35790118755	962.662068155909	142.995349747749	1985.96755965364	1083.71012983923	147	1679.86187584195
412.900833326812	142.74386368157	783.061003337434	1324.55374456823	180.202962588463	2023.22006714823	1570.70879860591	143	2703.53362285774	1875.55995571044	158.976220778044	2941.21470437043	1345.01780728779	132	2615.86038587104	1292.24320675768	147.818015060839	2011.0514304502	723.401220186246	130	1295.0728687446	912.897952688958	145.167339822261	1201.19558627774	928.101808478619	143.702357181859	1685.14831642252	640.070070263972	159.742536458673	775.638861515999	1103.05055749332	154.998672777103	1768.50654270029	587.361943058518	147.88021305943	679.173252488007	1190.22552796051	144.214979589957	2244.41604609409	1310.42033566737	136.267452843755	2247.60211214855	962.93897670199	142.998672777103	1987.81954185418	1083.99931520684	147	1681.39784268677
413.027968434861	142.726919452337	783.609654160436	1324.70352206056	180.257457979105	2024.48433082259	1571.05688725547	143	2705.34176500902	1876.08178589771	158.957949325913	2943.39684154341	1345.3154220136	132	2618.08658487253	1292.5215421205	147.79798867075	2012.94619402675	723.492369870791	130	1296.33213927132	912.83284084932	145.153555464955	1202.08779201716	928.239991382503	143.69876959487	1685.27425144136	639.940873435515	159.726919452337	775.537743601251	1102.98735257176	155	1768.11714864029	587.383144522862	147.886102621199	678.960198183797	1190.02703369754	144.183485885345	2244.84277000075	1310.31953093495	136.249293063712	2248.1908769222	963.082882394456	143	1989.18213968363	1084.0678600653	147	1682.30620777729
413.104661694845	142.723863483927	783.9642807206	1324.67190449427	180.301945603018	2025.31399950438	1571.15176251346	143	2706.43533800479	1876.31479591734	158.934192821633	2944.89029992373	1345.41433817432	132	2619.62211917786	1292.61169451372	147.764198553579	2014.38530082114	723.479750878072	130	1297.27466474019	912.685186578362	145.142326853007	1202.78264260281	928.168354300578	143.694106786823	1684.92843450305	639.698861331085	159.723863483927	775.257292911625	1102.70925144534	155	1767.16990960442	587.279068839223	147.898917788843	678.554503493517	1189.65786489221	144.143560600305	2244.57144563101	1310.07867408722	136.22729149739	2248.14303137657	963.11271537271	143	1990.04388966189	1083.93571576414	147	1682.54779295534
413.126422392669	142.734110440467	784.084264305718	1324.39907974873	180.328876968758	2025.51809081043	1570.96827963741	143	2706.64691185443	1876.24528878868	158.905846523204	2945.56426458846	1345.29335564493	132	2620.39891391717	1292.49820652008	147.717339934519	2015.30124912515	723.372624588801	130	1297.89739959966	912.454430437353	145.131536743178	1203.2632220287	927.929033923448	143.69205976638	1684.2736123252	639.366233617913	159.734110440467	774.855971016609	1102.23211109766	155	1765.81909546435	587.068334504132	147.917596325812	678.024894753315	1189.16347228822	144.101880377306	2243.71506164266	1309.75044907554	136.202962588463	2247.5255557354	963.050902132314	143	1990.42703208604	1083.63967403	147	1682.15113235095
413.091243139344	142.755357188539	783.955980084845	1323.85516521052	180.33343930763	2024.99047668075	1570.51028400935	143	2705.92246902135	1875.88391771143	158.875138566887	2945.37366095297	1344.9472598192	132.001327222897	2620.41388592158	1292.17758651684	147.659904985156	2015.65906268736	723.178295165898	130	1298.20160574405	912.13980192021	145.118547631051	1203.52053003079	927.566361982453	143.694200262422	1683.43272593776	638.967609674894	159.755357188539	774.38241681536	1101.58425422798	155	1764.20101388378	586.776020925355	147.938843073884	677.435332289525	1188.58691214328	144.064502673146	2242.41576296571	1309.38315186224	136.178400051946	2246.45631425787	962.921151654882	143	1990.39288481584	1083.22895749874	147	1681.21820062638
413.003242760866	142.782895020997	783.597446434551	1323.05468046903	180.313433547765	2023.74418243605	1569.81715091919	143	2704.33460124821	1875.27317317782	158.844051947113	2944.37214323469	1344.38994377034	132.004650252251	2619.7371523683	1291.6615233222	147.597236950976	2015.46630838117	722.901459599967	130	1298.19775836044	911.746074728001	145.102409434054	1203.55959564601	927.127947967044	143.700491346808	1682.47754040091	638.533205390416	159.784222243893	773.878311769606	1100.81508083776	155	1762.43054314356	586.437097340571	147.95927654881	676.83812305182	1187.97091467933	144.035529024564	2240.82426540858	1309.01829939996	136.153988742237	2245.09105379405	962.749774380375	143	1990.0333580221	1082.76286382373	147	1679.91633985435
412.875050791452	142.81238735693	783.062525549188	1322.06512814519	180.27281348672	2021.9321919705	1568.96175738846	143	2702.09085282173	1874.48798031659	158.81573310396	2942.72798919557	1343.66698203781	132.013077025505	2618.50840055557	1290.98918739247	147.536250840857	2014.77734066482	722.555147996857	130	1297.91514259347	911.295237950298	145.082403674188	1203.41028871564	926.653219375268	143.711305145774	1681.43703891091	638.094091425597	159.817037609181	773.379034258015	1099.98336151572	155	1760.6055828353	586.085664652343	147.976220778044	676.272467703671	1187.3486234077	144.016400054859	2239.06913701287	1308.67865721289	136.130297433659	2243.58217366469	962.557201282216	143	1989.44692215858	1082.29636751193	147	1678.4383458655
412.724478416225	142.838823794027	782.433334500252	1321.00208994444	180.217109786177	2019.82236200638	1568.04600574635	143	2699.49814854453	1873.63200939567	158.791949144403	2940.69848176902	1342.85043232156	132.028429474207	2616.93706016907	1290.22470571144	147.484184533954	2013.71168625455	722.161090158851	130	1297.41086859575	910.825639789194	145.061156926116	1203.13308154407	926.177256693463	143.724926415227	1680.32954340752	637.685420789887	159.850573596635	772.923834336585	1099.16077100027	155	1758.83167454322	585.757544470089	147.988250197392	675.770802228214	1186.74833540336	144.005977475148	2237.25955756889	1308.37589249659	136.107059686304	2242.07312575818	962.363011912052	143	1988.73604162719	1081.87916110451	147	1676.98207869985
412.575456190409	142.858738512028	781.804965763186	1320.00812490205	180.155310402913	2017.74634259756	1567.1797866084	143	2696.90021082	1872.81896603614	158.772729132834	2938.58165585856	1342.02365190275	132.052473253798	2615.2763391053	1289.44202735846	147.44876133327	2012.44149324323	721.747212952995	130	1296.76932799021	910.384302364436	145.04072345119	1202.81431486393	925.729014468185	143.738951571458	1679.17997969564	637.340766160675	159.882517733984	772.556195127172	1098.42140450262	155	1757.22552368427	585.485728452929	147.994022524852	675.362456910634	1186.19142948193	144.001327222897	2235.48532091532	1308.11096610122	136.083730897085	2240.68537628596	962.182543569217	143	1988.00191342648	1081.54927082987	147	1675.72470880433
412.452252478847	142.869568176577	781.266762486378	1319.23044330625	180.09668595068	2016.03868753285	1566.46530501081	143	2694.61389703972	1872.15729401927	158.756998020674	2936.6640677459	1341.26979595172	132.084936148072	2613.76592802441	1288.71608790334	147.433408954141	2011.15487206395	721.344699038945	130	1296.08421761953	910.018123507187	145.023779221956	1202.54404907214	925.332080984381	143.752347768423	1678.02866539408	637.088489934935	159.912946073561	772.318420292282	1097.83061932957	155.001327222897	1755.9061941177	585.293644770817	147.994022524852	675.070252211069	1185.69841682368	144	2233.80937645893	1307.88302769152	136.061156926116	2239.50136890722	962.030597815244	143	1987.32326342514	1081.33238995009	147	1674.79159058524
412.374780839572	142.87170867262	780.887924349229	1318.78774430835	180.04871945047	2014.97126600002	1565.97644939889	143	2692.87631448395	1871.72971077169	158.742826375236	2935.17461363456	1340.65977489975	132.123127125378	2612.59662195425	1288.11097052792	147.438491659054	2010.02635525779	720.985906360885	130	1295.44553252481	909.767161798315	145.011749802608	1202.4008730775	925.004241509526	143.762199688209	1676.93333438314	636.948695555811	159.942166103238	772.244807204118	1097.43846597764	155.004650252251	1754.98336365626	585.193748151884	147.986922974495	674.909052003808	1185.28283522576	144	2232.28409698957	1307.68576249813	136.04072345119	2238.56564583164	961.914436957136	143	1986.76009077175	1081.23502443455	147	1674.24991472336
412.353925310754	142.865123072014	780.703445130626	1318.74717670591	180.015609499389	2014.69794642032	1565.74627611627	143	2691.80222953827	1871.57640316881	158.72611924836	2934.24430664722	1340.24304980813	132.16356636017	2611.86848624709	1287.67426545302	147.461465473951	2009.17538948428	720.698625671473	130	1294.91985347361	909.65693427919	145.004650252251	1202.43081940872	924.756618431861	143.76471250333	1675.96238679853	636.927913592425	159.971026351418	772.354316840745	1097.27044954265	155.011749802608	1754.53885055836	585.184223634142	147.971570525793	674.882989936444	1184.95790527386	144	2230.94191050537	1307.51580007253	136.023779221956	2237.87159608696	961.838110496024	143	1986.33322773831	1081.2514317143	147	1674.09603204429
412.388418070017	142.851359344931	780.706617511264	1319.10628672338	179.999048740787	2015.21932311582	1565.75844556032	143	2691.36395147412	1871.68429765582	158.704903430334	2933.87940686911	1340.03723954599	132.200951305239	2611.57623637034	1287.42518666211	147.495640790068	2008.64882925261	720.502471434027	130	1294.53792444399	909.691232014485	145.001327222897	1202.63447050872	924.596798238201	143.755530911825	1675.1741710463	637.019405520461	160	772.639810399923	1097.32715180936	155.023779221956	1754.60142979115	585.250181402263	147.946199523305	674.976603099474	1184.7319398448	144	2229.79198837283	1307.36851760374	136.011749802608	2237.35793322603	961.799478231236	143	1986.02086045133	1081.36145234913	147	1674.25837115997
412.4663999426	142.833629367401	780.853409475666	1319.79645715136	179.999139782651	2016.39301883291	1565.95559748538	143	2691.41913862493	1871.99577676219	158.678318964489	2933.98276869258	1340.02706684289	132.231291731438	2611.59759910849	1287.35657959537	147.534660081411	2008.40099717363	720.404629541928	130	1294.28149673155	909.852354609896	145	1202.9606610618	924.522610607411	143.730965941573	1674.59367204655	637.200095036233	160.028973648582	773.060351229511	1097.58125531476	155.04072345119	1755.12609685586	585.365665602798	147.910413599677	675.153616726896	1184.60566834469	144	2228.82576810873	1307.23475630548	136.004650252251	2236.93117993632	961.788589800544	143	1985.76900765289	1081.53418778985	147	1674.62191276789
412.56682440741	142.81573310396	781.068952722826	1320.68902270881	180.01449216178	2017.95177633264	1566.24673340417	143	2691.73340294082	1872.41353383928	158.648393281699	2934.36817627121	1340.16350836014	132.251573979557	2611.71822128825	1287.43062217721	147.570717803583	2008.30570148034	720.39599428416	130	1294.08539517661	910.09972358466	145	1203.31443688862	924.520993847844	143.68847718303	1674.20122602949	637.43305362068	160.056506673866	773.546380962927	1097.97873171091	155.061156926116	1755.99125202524	585.496507610671	147.863795849117	675.356754998807	1184.56978232792	144	2228.01464244812	1307.09986809729	136.001327222897	2236.48001661507	961.792829409332	143	1985.5043268593	1081.73397159555	147	1675.05051968855
412.66329562793	142.802371724114	781.267239986118	1321.61672446068	180.044741615688	2019.56298640773	1566.52204952718	143	2692.04794773546	1872.81758207391	158.619842610578	2934.81832725316	1340.3705207177	132.26026538002	2611.67862496904	1287.58761247896	147.599155143877	2008.19318518045	720.44924709091	130	1293.85114894946	910.376125703935	145	1203.57491310956	924.567344364083	143.62855650752	1673.91933254316	637.670288461948	160.081076451291	774.00185436869	1098.44649842059	155.082403674188	1757.00233849458	585.605785788802	147.808004165623	675.513893534928	1184.60342032802	144	2227.29926433507	1306.94355310858	136	2235.88580701196	961.796742136729	143	1985.1416690875	1081.9231024782	147	1675.40485054998
412.729100906412	142.797835577687	781.361207728294	1322.40185224867	180.089067643398	2020.87629069515	1566.6683720505	143	2692.10856407398	1873.08166745144	158.599002050814	2935.10878453166	1340.55528982488	132.257457979105	2611.21925244261	1287.75193300421	147.616353502828	2007.88500802709	720.522206456882	130	1293.4651136415	910.613628881734	145	1203.62042279584	924.62543714363	143.554579606586	1673.63083470065	637.860345699734	160.09975498826	774.326172861308	1098.89990987268	155.09975498826	1757.92596818963	585.660809530769	147.745248218066	675.55285709209	1184.67715108686	144	2226.60750305462	1306.74848980803	136	2235.05848902364	961.789826059222	143	1984.6124735939	1082.07387349891	147	1675.57474652248
412.741918377921	142.803698947011	781.278835853613	1322.88481970054	180.144338136231	2021.58527990536	1566.59088848567	143	2691.70644545426	1873.09738553671	158.591085752542	2935.04422845291	1340.62252800112	132.244642811461	2610.13752476133	1287.84317066773	147.621177340423	2007.23595067897	720.56170106061	130	1292.82264526422	910.744039808456	145	1203.35411993257	924.648891783509	143.472263845776	1673.19248672514	637.95459653088	160.10924712655	774.427646470361	1099.25031066698	155.10924712655	1758.5202774078	585.635042784299	147.679121868239	675.414222169854	1184.75225579994	144	2225.86364797116	1306.50179411899	136	2233.96073183001	961.766115873967	142.998672777103	1983.88422277261	1082.16941088703	147	1675.49961717896
412.688834998999	142.820383356211	780.976512784327	1322.96089020921	180.205530799567	2021.48229232096	1566.23939096541	143	2690.71280777341	1872.80626949409	158.600753514003	2934.49148448176	1340.49373585617	132.224209336535	2608.32346982998	1287.78973935679	147.615736532702	2006.15937848191	720.514470895323	130	1291.85139482685	910.711096726835	145	1202.72443072236	924.590014864761	143.38882580617	1672.47472958245	637.914394536389	160.106709915065	774.246159716424	1099.41997776186	155.106709915065	1758.58828692463	585.51188257185	147.61222186956	675.064282807814	1184.78363752508	144	2224.9987506656	1306.19483605408	136	2232.61376739012	961.721717805554	142.995349747749	1982.96523469604	1082.20335554789	147	1675.17361033016
412.570370474152	142.84537917001	780.446400176538	1322.59705090574	180.265076286388	2020.48525419488	1565.61711419335	143	2689.09069629396	1872.20801148008	158.627745134259	2933.39261938684	1340.12682211208	132.198833526873	2605.8026456453	1287.5511810291	147.601442915354	2004.65965363515	720.341918384306	130	1290.53636207585	910.483959821139	145	1201.74290168544	924.412863716734	143.310714281425	1671.38501853183	637.721635671392	160.090118156844	773.763005689084	1099.36011621605	155.090118156844	1758.00829379287	585.290525316534	147.547738785604	674.500388656097	1184.72786405945	144	2223.96622275741	1305.82599643287	136	2231.08895921463	961.655508553108	142.988250197392	1981.90522238669	1082.18040222051	147	1674.64131041632
412.398463437475	142.875138566887	779.714041056786	1321.83822385697	180.314327493379	2018.64495973805	1564.78272463766	143	2686.89072899472	1871.36439203987	158.669624922775	2931.7591194558	1339.51800432863	132.170932971471	2602.7167078075	1287.11657040239	147.581160667235	2002.8188837909	720.023608210881	130	1288.91563520891	910.058934995047	145	1200.4722145703	924.097985274154	143.244469088175	1669.89522760148	637.378867362951	160.060358759967	773.001934379163	1099.05287093234	155.060358759967	1756.75964572449	584.982360398409	147.48779023896	673.752590812643	1184.54928037775	144	2222.74755965432	1305.40260023706	136	2229.49596188935	961.56800931062	142.976220778044	1980.78458511224	1082.11285763873	147	1673.98115292293
412.194450335566	142.905846523204	778.830270616797	1320.78937321484	180.345468726978	2016.12270341686	1563.82915801704	143	2684.227394559	1870.37519917828	158.717715192782	2929.65518670231	1338.70767775035	132.142326853007	2599.30117312736	1286.51236759334	147.555095235025	2000.7820231098	719.565772437859	130	1287.07746080426	909.462579955283	145	1199.01294210145	923.649535259937	143.194934496569	1668.04949277158	636.907616926858	160.021246748072	772.023217188993	1098.51890389589	155.021246748072	1754.92162181864	584.608841619269	147.433151833881	672.874876405779	1184.22448627484	144	2221.35422494947	1304.93582599346	136	2227.954764449	961.459353104448	142.957949325913	1979.69529887869	1082.01250067168	147	1673.28262799247
411.982676899793	142.934192821633	777.860188342644	1319.59082629516	180.353354025632	2013.14265782743	1562.86562680975	143	2681.25102863948	1869.36080095341	158.762630462183	2927.17535387218	1337.76262863187	132.114159236662	2595.83279757757	1285.78850366957	147.522635469237	1998.71694736111	718.994990465946	130	1285.13743246937	908.738382404367	145	1197.47391441552	923.091476472022	143.165147574841	1665.94784366747	636.342253800037	159.977426029031	770.900030630159	1097.80650579461	154.978753251928	1752.64236619493	584.19767988932	147.384689503671	671.92870260671	1183.75141849491	144	2219.81419229937	1304.44397697724	136	2226.55613493081	961.331562348137	142.934192821633	1978.71446493923	1081.89059391492	147	1672.61174061106
411.786061482518	142.957949325913	776.865930549284	1318.37919052803	180.335435114087	2009.93161160486	1561.9844634742	143	2678.11103587	1868.42401806455	158.79464292372	2924.41569566315	1336.7679499583	132.087053926439	2592.55429438056	1285.01593166116	147.48176079124	1996.76730853453	718.356239226836	130	1283.20370305969	907.94238334475	145	1195.93585794547	922.46137182678	143.157254457993	1663.722638806	635.717578951926	159.933663764886	769.699453658708	1096.97731541314	154.939641240033	1750.10311285341	583.773694847727	147.341805708373	670.967931635668	1183.14291972872	144	2218.15003531794	1303.94316280843	136	2225.32576186112	961.185144318469	142.904519300307	1977.87595882849	1081.74657328036	147	1671.98226511144
411.618470491936	142.976220778044	775.892077775241	1317.25444267752	180.292733011895	2006.65333647177	1561.24108066187	143	2674.91514932316	1867.62868054783	158.805300875742	2921.44014974513	1335.80188194151	132.062484149013	2589.61805575123	1284.26557948722	147.431452481208	1995.01891527855	717.697668182268	130	1281.34928135373	907.124370401943	145	1194.42859864251	921.799065095168	143.171018185075	1661.51112954624	635.061395943523	159.8921545654	768.462712636357	1096.08929866485	154.909881843156	1747.47613467562	583.355991034497	147.306155071038	670.030054207104	1182.42645043505	144	2216.36346703501	1303.44852116661	136	2224.20759190897	961.020289483643	142.870488314637	1977.15481871145	1081.56983731207	147	1671.33952998239
411.482981331425	142.986922974495	774.952776734605	1316.25445080604	180.226915533706	2003.35522840288	1560.64218021517	142.998672777103	2671.69888969114	1866.98685472434	158.789992671469	2918.25410103339	1334.91131860813	132.04072345119	2587.03657555774	1283.5844830488	147.373211499608	1993.46588099413	717.05553178494	130	1279.58336572271	906.312206715523	145	1192.91247478365	921.141081126366	143.20322688006	1659.41842934603	634.387748824071	159.851783585223	767.193879301947	1095.18882841119	154.893290084935	1744.88409015422	582.957010484554	147.278531003891	669.12583656547	1181.63826877945	144	2214.43642940498	1302.97208637543	136	2223.08712777539	960.837927345104	142.832302144505	1976.48020537186	1081.34130850703	147	1670.58051781347
411.372320934856	142.990699495499	774.030791980775	1315.34956896286	180.142777551783	1999.95871897916	1560.14805394553	142.995349747749	2668.4264092262	1866.46176072798	158.749553436678	2914.80805030664	1334.09812739199	132.023779221956	2584.6541980941	1282.98591048209	147.310543465428	1991.99274559808	716.444505877	130	1277.83302591968	905.505036322426	145	1191.27699469345	920.508921663239	143.248769569186	1657.48863096523	633.693375489678	159.808522922548	765.858047604604	1094.29373983288	154.889425650553	1742.37285718962	582.576428079845	147.260519371794	668.239313316689	1180.81563516218	144	2212.32626829356	1302.52055489929	136	2221.80837953086	960.63882953202	142.791953882004	1975.74565238642	1081.0388615291	147	1669.56857550932
411.270181758602	142.986922974495	773.084471209176	1314.45022095293	180.043429648361	1996.27616186676	1559.68259144888	142.988250197392	2665.00684898965	1865.97460452529	158.687958495678	2911.01412176768	1333.31907340051	132.011749802608	2582.19290825748	1282.44588853721	147.249036164648	1990.4092442245	715.851222132615	130	1275.9624316497	904.673695505129	145	1189.36806942227	919.905909513458	143.300835876089	1655.69461372666	632.961502617157	159.756858134722	764.391955066925	1093.39893825017	154.89559475949	1739.90823072098	582.206173945729	147.253961226465	667.333385165554	1179.99694957306	144	2209.9695576513	1302.10183559371	136	2220.20640681203	960.43069355592	142.751225693213	1974.82621557737	1080.64705087158	147	1668.16372885258
411.153450174926	142.976220778044	772.05414331254	1313.43040628907	179.932865598736	1992.04887882388	1559.15253375775	142.976220778044	2661.30512269085	1865.42596755142	158.61117419383	2906.75301732415	1332.49013954022	132.004650252251	2579.29079861128	1281.90241427723	147.195769296467	1988.47481931069	715.237129017387	130	1273.78838645981	903.765695248173	145	1187.01502479055	919.315783591638	143.350375274869	1653.93554370619	632.167736951805	159.691805774605	762.717807839742	1092.47714199041	154.905846523204	1737.38346185206	581.83238691338	147.257289062992	666.359499038453	1179.21518142637	144	2207.3069471944	1301.72535203306	136	2218.15778186458	960.225348114426	142.711572206717	1973.61466162835	1080.16467727227	147	1666.2645662487
411.000688324354	142.95927654881	770.877748488074	1312.16401370476	179.814388725609	1987.01790579249	1558.46988213937	142.95927654881	2657.17954456558	1864.71970425983	158.527736154224	2901.90630839141	1331.51074929278	132.002654445794	2575.57885550458	1281.27497918692	147.157008076898	1985.94364517824	714.54769186447	130	1271.11834077464	902.720802765622	145	1184.0640244483	918.70324438445	143.392863963839	1652.04586774927	631.282941605173	159.611970311521	760.759823023621	1091.48361329367	154.915063851928	1734.63542905759	581.432838962429	147.269469639574	665.261465713492	1178.49838161764	144	2204.27711035521	1301.40442458181	136	2215.58582677692	960.040695571985	142.675921569382	1972.0224248561	1079.60726366295	147	1663.81380479805
410.793328907935	142.938843073884	769.500897053748	1310.55705222774	179.689527292496	1980.97514646347	1557.57403511611	142.938843073884	2652.49639703517	1863.78557924958	158.445420393414	2896.36470732041	1330.28757519505	132.004650252251	2570.74176672434	1280.48187784108	147.134960103764	1982.60170198712	713.728005775697	130	1267.78219369502	901.486769903614	145	1180.40689481324	918.022678529019	143.423025707953	1649.81987161186	630.282677244004	159.51717918475	758.454818859714	1090.37118876873	154.91855309762	1731.47326611678	580.983377686841	147.285887453312	663.983671199659	1177.86013656244	144	2200.82526688496	1301.14648027675	136	2212.46811016936	959.891716076963	142.645067193433	1969.99202398858	1078.99997791459	147	1660.80877144399
410.523508893697	142.917596325812	767.887140379869	1308.57607905049	179.560557081733	1973.81582946134	1556.44851391734	142.917596325812	2647.15588667497	1862.59977555598	158.37144349248	2890.04865236578	1328.75913042995	132.011749802608	2564.5610244344	1279.4627282249	147.131009724258	1978.289305764	712.735464149448	130	1263.65556774333	900.032064365072	144.998672777103	1175.98930530894	917.220982761931	143.440778403159	1647.04386013659	629.148591882842	159.412340666957	755.762376694917	1089.09419238073	154.915063851928	1727.71154581146	580.457939607847	147.303643277003	662.476299914679	1177.2984493439	144	2196.89400671725	1300.95032427124	136	2208.8191751222	959.78728696782	142.619321419917	1967.48702997875	1078.37010892584	146.998672777103	1657.28489512975
410.193556793932	142.898917788843	766.021198472488	1306.25037213245	179.429020338555	1965.55134884274	1555.11500342035	142.898917788843	2641.09649028017	1861.17476566884	158.31152281697	2882.90975062038	1326.90567046564	132.025106444853	2556.94835772204	1278.18779600526	147.141261487972	1972.93005601904	711.547117371517	130	1258.67820172118	898.351414282107	144.994022524852	1170.81558634448	916.251138499095	143.448132152806	1643.52476081926	627.872882306835	159.303373157147	752.664094830499	1087.62064274367	154.905846523203	1723.19297949922	579.831985132358	147.318708380821	660.697130642842	1176.79131752544	144	2192.42600579624	1300.80107632877	136	2204.67447431859	959.724650129724	142.597145909112	1964.49154996788	1077.73611906792	146.995349747749	1653.29974181006
409.814577566523	142.8861026212	763.910086870332	1303.66310759544	179.297116065259	1956.31075967718	1553.62283486382	142.8861026212	2634.30634100227	1859.55119570333	158.269034058427	2874.94258347533	1324.74726932146	132.045373703441	2547.92926722254	1276.65752509047	147.160598305138	1966.51726918772	710.162267533873	130	1252.84824504881	896.463157061223	144.982272722244	1164.93208598006	915.074755071397	143.449987469888	1639.11873837799	626.456753070791	159.197361077	749.162985588132	1085.93464152081	154.894267536593	1717.81226851255	579.086450660068	147.331422683382	658.617352493356	1176.29922535505	144	2187.37193963233	1300.66919903891	136	2200.08756213918	959.686397259914	142.576715562671	1961.01121059756	1077.10107006024	146.988250197392	1648.92126647081
409.402922997719	142.881540282327	761.575818258991	1300.92536556472	179.167339822261	1946.30266759647	1552.02888715944	142.881540282327	2626.80887509626	1857.77824039354	158.244469088175	2866.17215695575	1322.33099671043	132.072906728724	2537.63509547868	1274.89296689062	147.180943866686	1959.11486887384	708.596733591055	130	1246.22101322972	894.401230704215	144.958493500288	1158.41724298291	913.662401231539	143.4517114778	1633.74859423893	624.90633595915	159.100008980034	745.279145285849	1084.02904144828	154.883448175406	1711.52442027514	578.205029290738	147.342212793211	656.224272891733	1175.77063944199	144	2181.70432290314	1300.51642521601	136	2195.12892541448	959.646120135229	142.555994742861	1957.0787255053	1076.45209924304	146.976220778044	1644.22139763311
408.975768228176	142.886102621199	759.054914190199	1298.15408847095	179.04072345119	1935.78348491821	1550.38543274302	142.886102621199	2618.67478056106	1855.89987721349	158.23528749667	2856.674493245	1319.7248078925	132.106182896144	2526.28009336176	1272.93301184116	147.196301052989	1950.84639033291	706.88124702889	130	1238.8991977543	892.210338655899	144.917770049098	1151.36982042647	912.001983627231	143.459492026031	1627.40552536424	623.235729136682	159.016422772535	741.043723554089	1081.91327769937	154.875562807179	1704.34491280487	577.181133193611	147.353716214724	653.51962800404	1175.1523444584	144	2175.42339846016	1300.30275892003	136	2189.87911414012	959.569697162722	142.534906462505	1952.747762173	1075.76239083202	146.95927654881	1639.26289701402
408.547212857342	142.898917788843	756.391608934955	1295.44846745593	178.916269102915	1925.01919464462	1548.72590142922	142.898917788843	2610.01648871575	1853.94677138083	158.236473088894	2846.57580625076	1317.00288125286	132.143132885243	2514.14710243938	1270.82726455628	147.202164422313	1941.89504435927	705.056571632354	130	1231.03192994822	889.942078327802	144.856613122982	1143.90893718378	910.100167955998	143.476838602502	1620.16811158106	621.46514607813	158.947353022915	736.505327040684	1079.61096220565	154.869702566341	1696.36716555499	576.019523444318	147.36857366521	650.532025266069	1174.40323276678	144	2168.58214200571	1299.99729090798	136	2184.43721685119	959.42471682475	142.514472987579	1948.09920894326	1075.00141210348	146.938843073884	1634.10653185859
408.125323272348	142.917596325812	753.630908447327	1292.88082564963	178.792387159287	1914.24308440571	1547.0671823696	142.917596325812	2600.96816945993	1851.93609007299	158.241674756429	2836.03185951125	1314.24421399058	132.179704557167	2501.57084043206	1268.63362140476	147.196301052989	1932.49076511946	703.171125701305	130	1222.80476309672	887.654110921649	144.774209448794	1136.17485137363	907.987295818551	143.506058562605	1612.19306579834	619.624887861884	158.892865844643	731.730476118178	1077.16275941144	154.863388764279	1687.75470974789	574.739577607399	147.387767830618	647.315669184394	1173.50358142221	144	2161.30079252824	1299.58596841452	136	2178.93374770637	959.186349439606	142.496043067732	1943.24378021183	1074.14387105046	146.916269102915	1628.822440535
407.713568372313	142.938843073884	750.821391089237	1290.49959530802	178.664962322244	1903.66408916014	1545.42178250725	142.938843073884	2591.70567418642	1849.89042265193	158.244648373683	2825.25253079205	1311.53005631657	132.21261319447	2488.91100192378	1266.4175517811	147.179616643789	1922.89082713792	701.280375927515	130	1214.43213073442	885.411342607121	144.673127237637	1128.32781631458	905.719970414069	143.544543293921	1603.71642727776	617.756439831808	158.85002942226	726.809435401136	1074.62916675542	154.851766429769	1678.74570552063	573.374514104944	147.409948079024	643.952357576471	1172.46598055788	144	2153.75940004433	1299.07834610657	136	2173.51758416489	958.843923634427	142.482732901872	1938.30812077308	1073.17949036893	146.894267536593	1623.49021066664
407.313261862305	142.95927654881	748.013719388186	1288.3327186574	178.530888298008	1893.45784330148	1543.79811809374	142.95927654881	2582.43197193643	1847.83431583981	158.239544560209	2814.48231740466	1308.94509613042	132.238758811913	2476.55275511029	1264.25507887749	147.15462082999	1913.37861080333	699.446963256192	130	1206.1544146739	883.287925838749	144.559229858837	1120.55735741242	903.380368590146	143.587664070644	1595.03385370502	615.915015200212	158.81573310396	721.858374522761	1072.0930342831	154.83098522143	1669.63553045675	571.972970406498	147.431995634497	640.545855713068	1171.33196189896	144	2146.19036292451	1298.49955597903	136	2168.34540735009	958.400560309411	142.476148979954	1933.42608947585	1072.11397849595	146.874352818591	1618.2015648856
406.923573800959	142.976220778044	745.25820401877	1286.3983760858	178.388208973987	1883.78265627655	1542.21180231202	142.976220778044	2573.36785669375	1845.80451084472	158.22419218108	2803.98856175368	1306.57426070844	132.255703041147	2464.87183343555	1262.22847226954	147.124861433113	1904.23447661517	697.73612906431	130	1198.2172489272	881.363322045497	144.440770141163	1113.06752529323	901.068727440534	143.62864274221	1586.47099572719	614.166538676961	158.785971669255	717.010625996817	1069.65150278467	154.799315893647	1660.74690801717	570.591349244249	147.448396710441	637.211641026558	1170.16714418514	144	2138.83909870811	1297.89068819436	136	2163.55304786191	957.873928857696	142.477082480288	1928.71387459028	1070.9697572908	146.856433837474	1613.04513833237
406.543553501074	142.988250197392	742.603976150895	1284.70764906554	178.238351727076	1874.79265591238	1540.67753423549	142.988250197392	2564.73707385085	1843.83770764902	158.197628275886	2794.04329832434	1304.49610416995	132.262020317978	2454.19773779278	1260.41621195949	147.094153476796	1895.70501426422	696.209029721176	130	1190.84887051093	879.712833185273	144.326872762363	1106.06057757434	898.887252131205	143.660970350191	1578.34484110091	612.57799805337	158.757656300872	712.407213206778	1067.40113124149	154.757205868135	1652.38990244368	569.284948029329	147.452785104831	634.060502591993	1169.03848301546	144	2131.92900848105	1297.28500972408	136	2159.23141781658	957.282896475775	142.485796111192	1924.25146251006	1069.77122506085	146.840728917759	1608.09377139392
406.173317297408	142.995349747749	740.09115391124	1283.27436051197	178.084485715335	1866.6240661007	1539.21458462634	142.995349747749	2556.72182176206	1841.97645229511	158.162239137273	2784.87232591008	1302.7719285914	132.258785202002	2444.77868339859	1258.8788666809	147.065807178367	1887.97241099491	694.915160586322	130	1184.23351242703	878.395723174578	144.225790551206	1099.71217463621	896.927296732641	143.679418322023	1570.90904260475	611.210618663992	158.72611924836	708.171010598633	1065.42423438304	154.707440711392	1644.80376393978	568.100096628598	147.440949426672	631.180167814275	1168.00239417213	144	2125.61475447899	1296.69969016122	136	2155.39728284699	956.641229921712	142.501932629501	1920.06240785718	1068.5364506174	146.824683837222	1603.38048818243
405.814667738924	142.998672777103	737.746765174404	1282.11110875783	177.931914339524	1859.39143967899	1537.83721093776	142.998672777103	2549.44532374931	1840.25402733379	158.123127125378	2776.63274105856	1301.43495823538	132.247538125754	2436.74584395274	1257.64918066601	147.042050674087	1881.12854389563	693.88392273974	130	1178.48405836917	877.444232877703	144.143386877018	1094.14587672637	895.253877654265	143.68409602955	1564.3211032439	610.106461019516	158.688746281801	704.392693260719	1063.77355471698	154.656462021719	1638.12393884507	567.065107987976	147.41021527791	628.619542866743	1167.08472225238	144	2119.95090973774	1296.1255801164	136	2151.98006329179	955.949006648012	142.521658413488	1916.10369891555	1067.26612060705	146.80543595452	1598.88449331364
405.46919961537	143	735.58131180852	1281.22517573942	177.786754717777	1853.16761985334	1536.54869875549	143	2542.94486368981	1838.68850858256	158.084936148072	2769.38308247105	1300.48461685748	132.231830077553	2430.10257750075	1256.7244709558	147.023779221956	1875.17356102738	693.11960592448	130	1173.63043907964	876.855521782644	144.082229950902	1089.41850886849	893.897237330546	143.675664518695	1558.62495335498	609.283174184535	158.643367840759	701.116536252364	1062.46419612772	154.611005277717	1632.36802443262	566.188777532376	147.363190442512	626.386916419724	1166.28092329519	144	2114.88210868348	1295.53038303418	136	2148.83158187999	955.192760572509	142.542285629603	1912.27341010454	1065.94225195799	146.779310133782	1594.5283348205
405.138312384475	142.998672777103	733.585067114824	1280.61394069019	177.653841700099	1847.96730502384	1535.33838514857	143	2537.16392885571	1837.27841128021	158.052473253798	2763.07242395821	1299.88648631607	132.21647289125	2424.73863441079	1256.06517972214	147.011749802608	1870.02631746896	692.60109904326	130	1169.62043831085	876.593673035691	144.041506499712	1085.51770700556	892.847313628421	143.657245732188	1553.75433268958	608.729554652955	158.588989255714	698.337327569339	1061.46981819174	154.576428079845	1627.44080415161	565.459584938955	147.304070992064	624.450603534052	1165.56204523496	144	2110.26713103278	1294.87454083135	136	2145.76410514108	954.353828372823	142.558448848142	1908.43578485722	1064.53864148107	146.742715744182	1590.19951362344
404.821164366906	142.995349747749	731.733738851151	1280.26143773048	177.536246103256	1843.74937685553	1534.17938140315	143	2531.97011508929	1836.00042613922	158.028429474207	2757.55687813876	1299.57487711189	132.205972008578	2420.46231118464	1255.60091247339	147.004650252251	1865.5519873992	692.285966572941	130	1166.3390599163	876.595507027779	144.017727277756	1082.37506545698	892.059768902686	143.632416204301	1549.56463217213	608.40936316686	158.527560531053	696.012318489764	1060.72955039329	154.55483359836	1623.17378375555	564.851497589403	147.239556978063	622.755218157345	1164.88683240374	143.998672777103	2105.92832025558	1294.12441746093	136	2142.60781580286	953.414241245993	142.566153030975	1904.46607130935	1063.03059474882	146.693127435281	1585.78647100204
404.517551673665	142.988250197392	730.00069029032	1280.14227723917	177.436495852597	1840.43815142479	1533.03916321525	143.001327222897	2527.20642085663	1834.82208155027	158.013077025505	2752.65790155595	1299.47552269117	132.203745636985	2417.05567267042	1255.25357082659	147.001327222897	1861.60201394171	692.122730088034	130	1163.64286424784	876.791055435541	144.005977475148	1079.89095602971	891.467294097827	143.605149774479	1545.87401084102	608.270639749205	158.463344112132	694.073940951664	1060.16527378854	154.546525322247	1619.37087662287	564.33001361616	147.178661909808	621.235271192023	1164.21753351778	143.995349747749	2101.68745617806	1293.26639689165	136	2139.23685613872	952.368348213616	142.56152897117	1900.26794294877	1061.40652203547	146.629883730417	1581.19940124849
404.227646830851	142.976220778044	728.366454865296	1280.22956840591	177.354851803833	1837.94571824762	1531.8919982925	143.004650252251	2522.73226584311	1833.71549713385	158.004650252251	2748.2045216853	1299.5205692578	132.212086175549	2414.33796006585	1254.95496774284	147	1858.06799136277	692.06309186698	130	1161.4020444543	877.119195344927	144.001327222897	1077.96927736042	891.000795244718	143.578685882105	1542.52192469715	608.262112782661	158.403631577189	692.455369732587	1059.70342518768	154.547829827468	1615.87057136444	563.866308956853	147.127233203254	619.838334373588	1163.53146065386	143.988250197392	2097.42958939946	1292.31160277472	136	2135.61718113566	951.224460179856	142.541502581081	1895.8127323479	1059.67470530386	146.555906829483	1576.40776422962
403.952900695549	142.95927654881	726.827380367231	1280.50244017142	177.291608029396	1836.19403067743	1530.72699336488	143.011749802608	2518.45692441689	1832.66516335482	158.001327222897	2744.0703103231	1299.66410731815	132.23139206267	2412.19741005713	1254.66494458061	147	1854.89961294308	692.07097269407	130	1159.52790176882	877.540103402609	144	1076.53582164033	890.606509505384	143.558278599624	1539.4103288778	608.343436636133	158.357415207763	691.111292920956	1059.29534549664	154.554932852594	1612.58909004184	563.444240020709	147.09063400648	618.540478842289	1162.83009714936	143.976220778044	2093.13003190412	1291.30021849942	136	2131.81112456886	950.009134360463	142.506211655668	1891.14470521455	1057.86690098306	146.475586875129	1571.44994871277
403.699219237448	142.938843073884	725.405008423071	1280.95074013094	177.246229588354	1835.14401636079	1529.55693818686	143.023779221956	2514.37572062541	1831.67542085942	158	2740.21287526256	1299.8935880382	132.257828430193	2410.61830301343	1254.37916541549	147	1852.12255845203	692.131340743405	130	1157.9959130606	878.044489057364	144	1075.55970861034	890.261948141207	143.545979110045	1536.53556430625	608.498591074638	158.332326742985	690.027909619341	1058.93193667939	154.565207333984	1609.54777324832	563.066669154146	147.070480148294	617.355437258994	1162.1401910019	143.95927654881	2088.88148685763	1290.2928614147	136	2127.98511742258	948.764299194324	142.45734948153	1886.39197747428	1056.03731972862	146.397252579425	1566.44809337008
403.477310079613	142.917596325812	724.139579256101	1281.58558887126	177.219049034084	1834.79293249825	1528.43006562134	143.04072345119	2510.56210954512	1830.78617362411	158	2736.66496941192	1300.22665933778	132.285799539934	2409.67191156056	1254.12711189373	147	1849.82278507353	692.252095298753	130	1156.84695625616	878.649702201184	144	1075.05071891066	889.982231095025	143.545193292176	1533.99930089094	608.738165429351	158.334863954469	689.232859714515	1058.65047434375	154.578019026859	1606.8794545541	562.757286799008	147.065829896043	616.334654423346	1161.50723335836	143.938843073884	2084.86852365221	1289.35709861274	136	2124.36784256127	947.538809038977	142.398295226785	1881.73685559683	1054.25216240497	146.327393953024	1561.58428772466
403.302323891368	142.898917788843	723.091459352509	1282.4324503427	177.209723112132	1835.1755117106	1527.4183362769	143.061156926116	2507.16466929228	1830.05549560563	158	2733.53512749584	1300.70408484811	132.310460289651	2409.49997735693	1253.96460045829	147	1848.13085923985	692.458465922658	130	1156.17864994356	879.390475252388	144.001327222897	1075.05524195377	889.816368549779	143.556165628431	1531.98175031289	609.097061842504	158.367052039178	688.784033478668	1058.52426201857	154.594758883401	1604.79565295454	562.555283959237	147.072906728724	615.556961448992	1160.99206234954	143.917596325812	2081.34356744127	1288.56252537209	136	2121.21698902875	946.385927286145	142.335914467916	1877.39733930115	1052.58595341555	146.274490342913	1557.08076705392
403.191050374599	142.8861026212	722.3270254403	1283.52795773809	177.22071809649	1836.35020833245	1526.61324713217	143.082403674188	2504.37933298664	1829.55751590678	158.001327222897	2730.98165036749	1301.37743526761	132.326689528512	2410.2779253904	1253.96018479441	147	1847.1865488466	692.790355356181	130	1156.12129445087	880.309495100149	144.005977475148	1075.63809457227	889.837379628903	143.578278797268	1530.72369582104	609.623807337959	158.427003714307	688.761543376513	1058.65076455466	154.618108302843	1603.56253696289	562.509544295296	147.088381149336	615.117306911857	1160.65550041162	143.898917788843	2078.58155325174	1287.96631187978	136	2118.77716957663	945.353093344478	142.279072478492	1873.59407999619	1051.10979801103	146.243797445702	1553.16668945216
403.16090661056	142.881540282327	721.908181603608	1284.90842578157	177.253769592676	1838.37517260297	1526.10770258891	143.101082211157	2502.40870306088	1829.36639987754	158.005977475148	2729.17183202487	1302.29017151746	132.332488048418	2412.17589877154	1254.17301426718	147	1847.11050416456	693.288106279725	130	1156.81235151081	881.439395680424	144.017727277756	1076.86201278179	890.11811553528	143.607659530687	1530.47545313951	610.365293283186	158.507904542427	689.246991943614	1059.11893395655	154.649710204774	1603.44337616421	562.662747305255	147.107059686304	615.108078495899	1160.55687642476	143.8861026212	2076.83005047145	1287.61282580098	136	2117.24042268043	944.484892438138	142.237540353814	1870.52051253645	1049.88882924189	146.238867576711	1550.04615942942
403.225383091261	142.886102621199	721.884088094059	1286.60291049675	177.31241195541	1841.29259543347	1525.98571599066	143.1138973788	2501.44229893284	1829.54352701725	158.016400054859	2728.26830287892	1303.46959075116	132.329043047154	2415.31448324136	1254.64562440762	147	1847.97281205189	693.986712385097	130	1158.36008730615	882.795921801708	144.041506499712	1078.76398671676	890.718640648263	143.641656250701	1531.44154935881	611.354771449241	158.601280532923	690.301865375546	1059.99667071661	154.690085922551	1604.64490816607	563.045637305489	147.126974404306	615.59648166296	1160.74204727226	143.881540282327	2076.26396216556	1287.52651669713	136	2116.71531174791	943.814767667468	142.220943857993	1868.31472144624	1048.97284610895	146.260869143033	1547.86635325291
403.393508661817	142.898917788843	722.292169313407	1288.61952300673	177.397786187939	1845.13293505277	1526.3024654306	143.118459717673	2501.65335058568	1830.12429564054	158.035529024564	2728.42814330515	1304.91844159484	132.320205714293	2419.74012281504	1255.39384334018	147	1849.78659815865	694.907213248927	130	1160.82528124144	884.372351682166	144.082229950902	1081.34282680842	891.667398062902	143.675659711521	1533.75051799391	612.599422522698	158.696906459593	691.952983302309	1061.30905185104	154.738319483705	1607.28468438068	563.666824122848	147.14688919188	616.616447091304	1161.24048723982	143.887429844096	2076.95983901236	1287.71432068623	136	2117.21425219461	943.368393423215	142.235113773384	1867.04530841032	1048.39557104318	146.308287700994	1546.70091601412
403.666068793815	142.917596325812	723.147068934822	1290.94079092161	177.510970672717	1849.89114206554	1527.07565804539	143.1138973788	2503.15921668504	1831.10582220244	158.064502673146	2729.75946869021	1306.61029639398	132.310472707504	2425.41703195445	1256.3994221069	147	1852.5093891726	696.04851895426	130.001327222897	1164.20551758907	886.134580736148	144.143386877018	1084.55386719209	892.957558727783	143.705144298833	1537.42926445485	614.077994134739	158.785959251402	694.184935114559	1063.03531794916	154.791407669802	1611.37084224301	564.512359085694	147.166370632599	618.158729008925	1162.06126688842	143.903568041094	2078.89691279375	1288.16708972777	136	2118.66998925348	943.162798283748	142.281325335636	1866.71535178764	1048.17197381639	146.376005831353	1546.55455938261
404.037084350038	142.938843073884	724.444799503668	1293.52389287456	177.649166030399	1855.53631862697	1528.28642732672	143.101082211157	2506.02504042495	1832.45329646113	158.101880377306	2732.32990246913	1308.49657303471	132.303521255468	2432.23029280999	1257.61805286204	147	1856.05451999338	697.388729499994	130.004650252251	1168.43580821706	888.030146474883	144.225790551206	1088.31379909804	894.545631713556	143.727098737845	1542.38667006673	615.742863770642	158.861263375233	696.93446695843	1065.11066532425	154.844689597087	1616.78611879312	565.54701315039	147.187345582126	620.168652686919	1163.19056269796	143.92934612842	2081.95946535493	1288.86111592505	136	2120.94871841182	943.201753303029	142.356087984866	1867.26564882256	1048.29990870363	146.458235561058	1547.36765427144
404.494319725745	142.957949325913	726.163291278204	1296.31076185036	177.807594381012	1862.01309012543	1529.88427228932	143.082403674188	2510.25295100597	1834.1082877854	158.143560600305	2736.15166075498	1310.51576235918	132.303093540407	2440.01790169199	1258.98718661783	147.001327222897	1860.31676024722	698.887248162061	130.011749802608	1173.40681850246	889.995788539434	144.326872762363	1092.52191896328	896.364598822865	143.738153405309	1548.4402365125	617.532869649223	158.919097271995	700.107664982478	1067.4451001662	154.893469370443	1623.32188161129	566.72338516764	147.210181051817	622.557893869278	1164.58630792793	143.96262229584	2085.98217612222	1289.75400345876	136	2123.89640178468	943.474175786907	142.451309955184	1868.6084966248	1048.75590851063	146.54774191409	1549.04929528307
405.020904814095	142.971570525793	728.259303390444	1299.23528789566	177.980080474825	1869.23900569077	1531.79860184667	143.061156926116	2515.77181373522	1836.00085741992	158.184813108242	2741.16974435434	1312.60622210729	132.310566183104	2448.59480981865	1260.44554585833	147.005977475148	1865.19084206407	700.494071246566	130.023779221956	1178.98142655596	891.971680287365	144.440770141163	1097.07425867636	898.338892277336	143.738413225343	1555.33743248673	619.383770458117	158.958493500288	703.590549373637	1069.93935192643	154.934170103957	1630.70115198599	567.989783815644	147.235145865997	625.216187074193	1166.18644517781	144	2090.77496271805	1290.7948054507	136	2127.36115338026	943.954459307419	142.555994742861	1870.64029918251	1049.50056618881	146.635743971255	1551.49308603673
405.599871334026	142.976500394784	730.673033497271	1302.2440804219	178.160598305138	1877.11136501658	1533.95773697662	143.04072345119	2522.43965058775	1838.07338270379	158.220957065105	2747.26623791485	1314.72001906888	132.325009627086	2457.7969608979	1261.94555536228	147.017727277756	1870.59616463135	702.158378522237	130.04072345119	1185.02679496373	893.91212117182	144.559229858837	1101.89003570155	900.393333216388	143.72896226903	1562.80178577584	621.240176395585	158.983599945141	707.272221753134	1072.50002515138	154.964470975436	1638.62996942462	569.299162770872	147.262130949032	628.031559552069	1167.90851150996	144.03737770416	2096.15841225341	1291.92009523418	136	2131.21954423165	944.600295343714	142.660312069993	1873.26387916241	1050.47948073015	146.716818743859	1554.59693164032
406.213276706623	142.971570525793	733.328241173846	1305.29494899003	178.34345210273	1885.50467675588	1536.29047035138	143.023779221956	2530.04271423474	1840.28011852959	158.248757151332	2754.25792516483	1316.82786094961	132.345443102013	2467.48112360487	1263.46072679649	147.041506499712	1876.46877793593	703.837158950806	130.061156926116	1191.42036975545	895.791850067911	144.673127237637	1106.91323486207	902.47147777553	143.712785323791	1570.5612063071	623.064667640916	158.998672777103	711.057388107992	1075.05826628462	154.983599945141	1646.82524324932	570.617056899967	147.288694854226	630.902911305202	1169.66682183551	144.07065387158	2101.98112912287	1293.06958218476	136	2135.388960865	945.361744343827	142.755530911825	1876.39670067898	1051.63284172947	146.784504560407	1558.27556446022
406.84537917001	142.957949325913	736.136472015695	1308.36011288132	178.525693871382	1894.27039768038	1538.73439718731	143.011749802608	2538.30685665684	1842.59349293269	158.269213343935	2761.90920110269	1318.91347348839	132.367863412439	2477.51711354815	1264.98009783945	147.082229950902	1882.74478620697	705.497535120456	130.082403674188	1198.05373358716	897.602800578316	144.774209448794	1112.10660836358	904.532561996018	143.694601785039	1578.37185780655	624.835977407658	159.010422579711	714.871818692158	1077.56546489953	154.994022524852	1655.03955174341	571.92040350553	147.312451288934	633.747351699447	1171.37780181118	144.096431958906	2108.11979404573	1294.18721346819	136	2139.81334691396	946.185413540018	142.83536637491	1879.96611593358	1052.90033499741	146.83536637491	1562.45388579594
407.482245216475	142.938843073884	739.005482159123	1311.41899499483	178.705685773434	1903.24468108666	1541.23134641634	143.004650252251	2546.92957665734	1844.99520238462	158.285459738251	2769.96513252571	1320.97218910319	132.387775696705	2487.75806992612	1266.5057310471	147.142059654121	1889.33429117915	707.118140242967	130.101082211157	1204.81744816218	899.350654380846	144.856613122982	1117.43401822314	906.548541721718	143.677162557589	1586.01874116728	626.543085437231	159.023779221956	718.657502328005	1079.98968548549	154.998672777103	1663.06137264949	573.194504390808	147.330375077225	636.498524731562	1172.97284936174	144.112570155904	2114.45225362142	1295.22724339728	136	2144.42983898765	947.020527601842	142.897336574172	1883.88749310875	1054.22677459156	146.86836292559	1567.04801133777
408.109674136189	142.917596325812	741.839052875115	1314.43938957167	178.882517733985	1912.23437738655	1543.71379734223	143.002654445794	2555.57913012819	1847.45276903086	158.303093540407	2778.14719914791	1322.99707449088	132.40101857941	2498.01556423111	1268.03698860664	147.219813076059	1896.10155382506	708.683350533032	130.1138973788	1211.58518673041	901.040315960274	144.917770049098	1122.83550601801	908.492251560385	143.661110236143	1593.31200574132	628.17496387806	159.04072345119	722.35796407236	1082.29917669545	155	1670.70686551162	574.42366101602	147.339433938232	639.098674499521	1174.40272281822	144.118459717673	2120.82794691892	1296.15953045013	136	2149.1297908818	947.826839408367	142.941549271054	1888.04036977554	1055.56711536501	146.885042597189	1571.93972316634
408.709796362328	142.898917788843	744.544059295707	1317.36470855703	179.055179450969	1921.02436970921	1546.09193466807	143.004650252251	2563.92079238902	1849.89970430777	158.328627700321	2786.17246185441	1324.96081031705	132.403825980324	2508.0191189425	1269.55174297653	147.309145484607	1902.84178472192	710.171464470488	130.118459717673	1218.18839498597	902.659842165689	144.958493500288	1128.2009172579	910.323504948581	143.646125317559	1600.06960008581	629.706903391357	159.062484149013	725.904161831162	1084.44738109277	155	1677.80016443873	575.584502000902	147.338620665087	641.492169996389	1175.63566576898	144.113897378801	2127.05200089101	1296.96140528685	136	2153.74354866343	948.573613097075	142.970243302896	1892.26543778608	1056.88246762409	146.889166851605	1576.96629361777
409.261351072032	142.8861026212	747.034980224488	1320.10953437491	179.222882113638	1929.38240122847	1548.25555544261	143.011749802608	2571.63300635444	1852.23346931495	158.367596213553	2793.76516315497	1326.80702127369	132.393379641904	2517.4049000373	1270.99602867105	147.399263641452	1909.27718281784	711.547612291213	130.1138973788	1224.40590600253	904.168759284234	144.980945499347	1133.35553164107	911.977876202071	143.630145588278	1606.09227682401	631.091543318981	159.087053926439	729.195438541304	1086.35999607366	155	1684.1432354661	576.635042368905	147.329967992387	643.609489053108	1176.65010827654	144.102409434054	2132.87475872891	1297.61619128763	136	2158.03605404832	949.2414516096	142.986922974495	1896.36278211737	1058.13805127956	146.885840763338	1581.91511831134
409.741792506461	142.881540282327	749.241850425857	1322.56050677635	179.382319412218	1937.07883594986	1550.07625778986	143.023779221956	2578.43877840816	1854.31468925157	158.422869140121	2800.677293728	1328.44533686516	132.368968332194	2525.74953329483	1272.28191083213	147.476999907935	1915.09191625565	712.758462582367	130.101082211157	1229.97765177876	905.494492271932	144.989372272602	1138.0719962548	913.366314914749	143.612747797821	1611.16841917899	632.257531886458	159.112832013765	732.101699211544	1087.93691628784	155	1689.51735723218	577.517877976155	147.316315792888	645.370281195754	1177.43250745476	144.087053926439	2138.00940131889	1298.10949199265	136	2161.73105977885	949.820097713454	142.994022524852	1900.11227146937	1059.30008803496	146.881452368949	1586.53730828814
410.126054073875	142.886102621199	751.110727838589	1324.5957694557	179.529473161733	1943.8950055146	1551.429655908	143.04072345119	2584.11364054279	1855.99188211778	158.493676672244	2806.69064213796	1329.75442274888	132.331160825521	2532.60046727204	1273.29266794409	147.529740360619	1919.95812358439	713.732289661852	130.082403674188	1234.62474561537	906.534112212046	144.986922974495	1142.0897230801	914.384513490905	143.594308450664	1615.07372937412	633.117601317931	159.137676600757	734.470858876107	1089.06269496597	155	1693.68038704307	578.166680172983	147.302981868319	646.685739707449	1177.96985594742	144.072906728724	2142.16423381282	1298.42715947701	136	2164.55255969294	950.304095954644	142.994022524852	1903.30264216815	1060.3339130691	146.88021305943	1590.57525433273
410.394749701918	142.898917788843	752.615965425513	1326.10633623627	179.660050212132	1949.66536835171	1552.21896997523	143.061156926116	2588.53024545194	1857.13202086524	158.575629913695	2811.65913162581	1330.6069213435	132.282113991221	2537.58169269942	1273.90801700017	147.548418897587	1923.61635965711	714.392267235223	130.061156926116	1238.10843527445	907.175930656689	144.976220778044	1145.1710221502	914.93358172085	143.57539077351	1617.6106304647	633.584613403515	159.159183168863	736.154625015793	1089.63044173288	155	1696.40771409421	578.520602324653	147.293795539214	647.476291972442	1178.24916885326	144.064502673146	2145.10105726085	1298.55811887853	136	2166.29115581085	950.691030635206	142.988250197392	1905.77585178586	1061.20628647894	146.8861026212	1593.81081823702
410.537076554925	142.917596325812	753.753995125438	1327.02526972567	179.769559196543	1954.28268206284	1552.40413554641	143.082403674188	2591.65453229287	1857.65888338	158.661727206268	2815.50241764359	1330.89720015209	132.225536559432	2540.45800318699	1274.03150303395	147.529740360619	1925.91287969618	714.674512373287	130.04072345119	1240.27558149551	907.326277221621	144.95927654881	1147.14717590661	914.94879899002	143.55711208047	1618.65901741772	633.595434191012	159.175054304917	737.046230513153	1089.5734680387	155	1697.54781362586	578.541944344405	147.290011707728	647.694437991536	1178.26540748825	144.064502673146	2146.68538775912	1298.5033628302	136	2166.85871170009	950.982237349501	142.976220778044	1907.45657416329	1061.89399455071	146.898917788843	1596.10700395147
410.554800357912	142.938843073884	754.55029124864	1327.34407031094	179.855285900085	1957.72287597178	1552.01561652628	143.101082211157	2593.56354113701	1857.57270667833	158.742715744182	2818.23367505379	1330.57045701092	132.167339822261	2541.19957057508	1273.61798462052	147.476999907935	1926.83620915097	714.545596889883	130.023779221956	1241.09964275994	906.935079562378	144.938843073884	1147.96097206285	914.420871503449	143.540118044586	1618.2057325809	633.13227720165	159.183485885345	737.106468359505	1088.88670511667	155	1697.06019815984	578.229817597655	147.290016514902	647.340074934935	1178.02928430227	144.072906728724	2146.92540106995	1298.28119827769	136	2166.32490835099	951.183764253516	142.957949325913	1908.37503475539	1062.38949384178	146.917596325812	1597.4414764965
410.462403718958	142.95927654881	755.054792000123	1327.11768200052	179.917770049098	1960.05596196545	1551.15517737311	143.1138973788	2594.44838828851	1856.95843386254	158.812037585691	2819.97155815552	1329.65694438218	132.113630179914	2540.02694721491	1272.70442960561	147.399263641452	1926.54096988353	714.024653487568	130.011749802608	1240.71116854332	906.025689308121	144.917596325812	1147.6979493905	913.411736164454	143.525019795174	1616.40025325448	632.235576939782	159.183485885345	736.3953927165	1087.64611218904	155	1695.07912861612	577.629264097849	147.290996004386	646.482714021759	1177.56897075478	144.087053926439	2145.99257464177	1297.9303802863	136	2164.92755559479	951.308051346153	142.934192821633	1908.66850405366	1062.7048509966	146.938843073884	1597.9233218276
410.286383047832	142.976220778044	755.337736071875	1326.45590197746	179.958493500288	1961.43233092771	1549.97817087209	143.118459717673	2594.58412560467	1855.96861141701	158.863012800595	2820.9209277452	1328.27020912958	132.070480148294	2537.39775220417	1271.40290460349	147.309145484607	1925.33250399634	713.183172061962	130.004650252251	1239.39100653422	904.694231985728	144.898917788843	1146.58416408057	912.051209503607	143.512471618901	1613.55485350956	631.007140305388	159.176381527814	735.075304506573	1086.00358294302	155	1691.92081651409	576.826944102043	147.289213541578	645.258726702799	1176.94275007934	144.102409434054	2144.20778719627	1297.51393803693	136	2163.04491399187	951.37889299272	142.905846523204	1908.56036273576	1062.87693260115	146.95927654881	1597.7811071316
410.060373877594	142.988250197392	755.482256000482	1325.50246709433	179.982272722244	1962.07042783714	1548.665511749	143.1138973788	2594.30669846469	1854.7925608884	158.891359099024	2821.35982962584	1326.59672808236	132.041506499712	2533.94577302455	1269.88868800103	147.219813076059	1923.61821878284	712.140637707056	130.001327222897	1237.5322305517	903.102716094559	144.886102621199	1144.95500226788	910.524098864317	143.505255658855	1610.11111457728	629.598385218631	159.165160644011	733.392117815105	1084.17396272963	155	1688.05292445763	575.942020224946	147.283708275062	643.85669759522	1176.22940106339	144.113897378801	2141.98756216792	1297.10945194792	136	2161.124617675	951.426650468299	142.875138566887	1908.31540701209	1062.96269906876	146.976220778044	1597.32189138899
409.820395774064	142.995349747749	755.581558338141	1324.41474022889	179.994022524852	1962.2434658352	1547.39718290601	143.101082211157	2593.98737954717	1853.62654467891	158.894848344717	2821.62440753132	1324.870939103	132.029477080364	2530.38207774144	1268.37326281381	147.142059654121	1921.8407441944	711.04730593792	130	1235.58032773125	901.455881632264	144.881540282327	1143.20133394889	909.040008857165	143.506064124827	1606.60094575651	628.188722732717	159.154076655615	731.646332192192	1082.40057337099	155	1684.05384457125	575.105541522603	147.273863596185	642.495763788816	1175.52456533208	144.118459717673	2139.79273638999	1296.79941556022	136	2159.61712517489	951.48782844942	142.84537917001	1908.20155304193	1063.03181099796	146.988250197392	1596.88751016893
409.601269363638	142.998672777103	755.720862840128	1323.3408315089	179.998672777103	1962.23238674291	1546.32490636645	143.082403674188	2593.96881988939	1852.64115140141	158.872230129319	2822.04009085258	1323.32876092262	132.034406949354	2527.4095915928	1267.0603962028	147.082229950902	1920.42693601588	710.057378723323	130	1233.9718405027	899.960774289699	144.886102621199	1141.71398991751	907.806307093233	143.515678238566	1603.56771985532	626.957991723591	159.148361038329	730.143194344798	1080.9248097837	155	1680.52879458092	574.441558176793	147.26225841713	641.389262384821	1174.92725843893	144.113897378801	2138.05053707434	1296.65614610096	136	2158.8866033503	951.59745698388	142.820383356211	1908.43926730514	1063.15476574253	146.995349747749	1596.79150925965
409.431734235045	143	755.974036437479	1322.40558730073	180	1962.30669021888	1545.55616664103	143.061156926116	2594.535724387	1851.95857958855	158.824943795199	2822.89472857581	1322.16990762178	132.053800476695	2525.60801227588	1266.11705628626	147.041506499712	1919.71969391381	709.305184250966	130	1233.06266898908	898.794595677	144.898917788843	1140.81790293634	906.990909467525	143.536250840857	1601.48094328874	626.055542891166	159.151556599585	729.140816263045	1079.94232076528	155	1678.01266432575	574.046132373298	147.252638810742	640.710556308164	1174.52832563086	144.101082211157	2137.0929949103	1296.73343782427	136	2159.15322457312	951.784761048419	142.803698947011	1909.16883434491	1063.39480742203	146.998672777103	1597.26995027009
409.331551531725	143	756.394696260708	1321.70128922949	180	1962.70255117594	1545.14833069554	143.04072345119	2595.88576366864	1851.64665762003	158.755530911825	2824.40045429362	1321.52605105757	132.084936148072	2525.3582211104	1265.64503032142	147.019054500653	1919.93476249293	708.882081770095	130	1233.08240856793	898.075172735187	144.917596325812	1140.72829627235	906.703446994885	143.564416023467	1600.68187374061	625.581009250058	159.164364526319	728.816942885647	1079.58298887025	155	1676.90884755711	573.975054261425	147.248095423404	640.571461535748	1174.39508585984	144.082403674188	2137.13066880144	1297.05509356213	136	2160.48164079132	952.068084056767	142.797835577687	1910.45060960174	1063.79572332745	147	1598.4619937688
409.30995705024	142.998672777103	757.01071079537	1321.28143665468	180	1963.59903524991	1545.10413339217	143.023779221956	2598.10743128943	1851.71064207818	158.670734649704	2826.66705957122	1321.43848522223	132.123127125378	2526.79105065268	1265.66973442207	147.010627727398	1921.13776390625	708.826545296346	130	1234.10506726344	897.844838903477	144.938843073884	1141.52131423044	906.973823127778	143.596624718451	1601.32561240179	625.564281337796	159.184284051494	729.238299803008	1079.88464536411	155	1677.41472041748	574.233418130425	147.250091229861	641.002453246697	1174.56355902626	144.061156926116	2138.23941828092	1297.61354942045	136	2162.79360235869	952.452742064129	142.803698947011	1912.26908218944	1064.37613097252	147	1600.40208395174
409.367254279575	142.995349747749	757.828229958441	1321.1668237965	180	1965.11342597516	1545.38997616794	143.011749802608	2601.19034046133	1852.11487882445	158.579773964817	2829.70961304325	1321.86237594246	132.162239137273	2529.78890589207	1266.14519067589	147.014404248402	1923.24970797901	709.120549544188	130	1236.05554394549	898.072467181017	144.95927654881	1143.14045983844	907.750303357628	143.62776595205	1603.36980582231	625.967385381742	159.208592330198	730.361005577752	1080.79104706393	155	1679.50724317861	574.778428167949	147.259738361099	641.955400179804	1175.03168738937	144.04072345119	2140.36732087786	1298.36687459759	136	2165.89910489633	952.930188842245	142.820383356211	1914.55058076152	1065.12801095859	147	1603.02848909635
409.493964392284	142.986922974495	758.835203703372	1321.34667480487	180	1967.29394079036	1545.94432681584	143.004650252251	2605.04086094754	1852.79157738312	158.490706183477	2833.46234878872	1322.6808344017	132.197628275886	2534.01845134723	1266.97226290837	147.028429474207	1926.07585707279	709.699776248631	130	1238.73532388156	898.665232512986	144.976220778044	1145.416351743	908.918214644216	143.652693762711	1606.58831558985	626.69618309942	159.231379644816	732.047379753733	1082.1733085525	155	1682.95093987229	575.530760626373	147.275615059374	643.314177599687	1175.76289934103	144.023779221956	2143.35412582123	1299.25084865522	136	2169.54040684665	953.480029849204	142.84537917001	1917.17889189615	1066.01875111275	147	1606.20377230367
409.673865390414	142.970243302896	760.000644697978	1321.78290958702	180	1970.0998884792	1546.69016233224	143.001327222897	2609.47993428564	1853.65771546853	158.412594658731	2837.77723353596	1323.73073278964	132.225519403977	2538.99074053721	1268.01545562368	147.053800476695	1929.3449969501	710.467970005228	130	1241.86409062906	899.490897271831	144.988250197392	1148.10470002045	910.317503037172	143.666155155377	1610.62535330079	627.620467750037	159.248757151332	734.09601872157	1083.84691388167	155	1687.35443146646	576.388418859275	147.294130854773	644.920818665234	1176.68942158349	144.011749802608	2146.9659007724	1300.18461975067	136	2173.43725254138	954.074240796622	142.875138566887	1920.01813075113	1066.99650453014	147	1609.74063361601
409.887429844096	142.942876493951	761.278865530191	1322.41659261069	180	1973.40258587267	1547.5446804491	143	2614.26371127557	1854.62796091345	158.351979207216	2842.44609118496	1324.83796402099	132.24419481246	2544.12768126547	1269.133426047	147.089586400323	1932.74232388493	711.31558390956	130	1245.12037251676	900.405178709821	144.995349747749	1150.92565471627	911.773538757814	143.665400337127	1615.04940291056	628.598050909576	159.257463541327	736.280457951918	1085.60752615845	155	1692.23282193753	577.245878972527	147.311241300346	646.601427708186	1177.72656691175	144.004650252251	2150.92804621195	1301.08793561916	136	2177.32540708816	954.681607800095	142.905846523204	1922.92885134459	1068.00135514992	147	1613.42902694868
410.112570155904	142.90331404932	762.606232628775	1323.1655173187	180	1976.97578438062	1548.42296264274	143	2619.0832035439	1855.6169645834	158.311089539687	2847.19763497899	1325.84560421419	132.255070953394	2548.86677808442	1270.19644813908	147.134876927986	1935.96687077784	712.139235915835	130	1248.199633269	901.274015419879	144.998672777103	1153.61226125202	913.124916762624	143.649889490282	1619.4300758653	629.49900630096	159.255703041147	738.386351928226	1087.26231665393	155	1697.09295424652	578.00892936752	147.322489708999	648.193665731669	1178.77866368482	144.001327222897	2154.95583163941	1301.88754949173	136	2180.97786341357	955.270170072268	142.934192821633	1925.7760143997	1068.96898726266	147	1617.0574932035
410.32878905538	142.853093652666	763.906643324272	1323.93185688137	180	1980.517319462	1549.24212049285	143	2623.59403864685	1856.54686286135	158.29079475625	2851.72568065123	1326.63335852723	132.260803726135	2552.72151621481	1271.10171217342	147.186018359229	1938.75765005432	712.852964345913	130	1250.84470854226	901.991865183403	145	1155.94003373595	914.24460440112	143.622346095603	1623.39701602433	630.223942712762	159.244642811461	740.240451004416	1088.65597085398	155	1701.50458451227	578.608722029696	147.326618770588	649.569529424313	1179.75367124651	144	2158.78580924883	1302.52694821606	136	2184.21851291653	955.809669118748	142.957949325913	1928.44129869112	1069.8402823509	147	1620.43267227797
410.516663335114	142.797037411537	765.094962316612	1324.60802901258	180	1983.68282674299	1549.92587987583	143	2627.44872298798	1857.34699755276	158.289070817911	2855.71334447687	1327.12313721869	132.264119514579	2555.34859985738	1271.77749206865	147.237024504179	1940.92543996128	713.394703254357	130	1252.878526006	902.485946393701	145	1157.75396153745	915.051812227856	143.587565857444	1626.68671466082	630.710422663084	159.225964274493	741.731350887942	1089.68588517118	155	1705.15508153719	579.007196794366	147.323265157472	650.647815869144	1180.57204915403	144	2162.20264769618	1302.9717217802	136	2186.93155906605	956.27470316251	142.976220778044	1930.8321422039	1070.5670768926	147	1623.3987837814
410.662222800788	142.742542020895	766.08796045087	1325.08803825026	180	1986.13901454665	1550.40923029451	143	2630.34222819653	1857.95653106523	158.303187016006	2858.87142437034	1327.28514183358	132.266687725683	2556.57827882729	1272.19023933797	147.280698854946	1942.36182017828	713.731085913889	130	1254.21287271413	902.724504675727	145	1158.97774176222	915.514900562162	143.552725364769	1629.1706676781	630.936379558725	159.202962588463	742.815717249502	1090.30824458772	155	1707.88651095929	579.197730558896	147.314493571776	651.402336210226	1181.18050674713	144	2165.05909402298	1303.21723939817	136	2189.06557597903	956.649736128182	142.988250197392	1932.88909927291	1071.12054390272	147	1625.85261321277
410.755328671428	142.698054396982	766.816757585925	1325.2841037633	180	1987.62520331726	1550.64950380106	143	2632.06831232901	1858.33297459848	158.329392818393	2860.98976593784	1327.1258424266	132.268422033417	2556.41606863315	1272.33364035225	147.310198431789	1943.03666563441	713.852515586478	130	1254.84824937868	902.706749073232	145	1159.61092595816	915.650807607946	143.522624128381	1630.84921704888	630.916059538306	159.178400051947	743.511811477003	1090.53767302255	155	1709.69080784271	579.202781540965	147.303261485059	651.853373903942	1181.55584664681	144	2167.29191316178	1303.28138633561	136	2190.63384370807	956.928110460437	142.995349747749	1934.59534673882	1071.4937217796	147	1627.7556871757
410.791401870367	142.671123031242	767.24083947335	1325.14108899611	180	1988.00526638421	1550.63318802692	143	2632.56208643815	1858.45687540593	158.365497016952	2861.97723743328	1326.68198932256	132.267452843755	2555.03389032282	1272.22875621873	147.321951362883	1943.00038042835	713.771388996464	130	1254.86238965568	902.456413429609	145	1159.71965881749	915.514673888671	143.49887109887	1631.83360006067	630.689132129893	159.153988742237	743.884889367207	1090.43715624122	155	1710.69440239656	579.065070081787	147.291232065711	652.058355115809	1181.70742101895	144	2168.91433742231	1303.20135332925	136	2191.6997993104	957.113465301247	142.998672777103	1935.96822281897	1071.69920890395	147	1629.13146821865
410.771482345192	142.66656069237	767.355815561658	1324.64282044705	180	1987.29608218161	1550.37031904252	143	2631.91890325084	1858.32458449302	158.40910081338	2861.88125644791	1326.01550765145	132.26078657068	2552.72331398481	1271.91728663041	147.31484868404	1942.36269526721	713.517380929528	130	1254.38590927522	902.016305817602	145	1159.41454098983	915.190260023619	143.479908345503	1632.30868214339	630.313994574348	159.130297433659	744.02756920594	1090.10627513476	155.001327222897	1711.11474706111	578.840955517312	147.279747595733	652.096640155336	1181.67878296304	144	2170.01727381495	1303.03322968565	136	2192.37909425895	957.223745993324	143	1937.06466133506	1071.77286958146	147	1630.06628725311
410.702274609505	142.685239229338	767.197568710316	1323.82298621159	180	1985.67001961024	1549.9033990895	143	2630.38303938446	1857.95904014249	158.457714370397	2860.88726987773	1325.1989703792	132.245434121979	2549.84397597943	1271.44966783463	147.292448657554	1941.27503605055	713.13048603736	130	1253.57753184555	901.436308492614	145	1158.82786673678	914.773464678498	143.461566456498	1632.4824830909	629.855614360913	159.107059686304	744.035202961164	1089.66063266473	155.004650252251	1711.20289601134	578.587010342213	147.268085706503	652.050226079577	1181.53195525968	144.001327222897	2170.74052539503	1302.83407298228	136	2192.81723393363	957.283129201518	143	1937.96555704175	1071.76159789699	147	1630.689110354
410.595809396847	142.723863483927	766.840745694107	1322.75900696465	180	1983.43080857476	1549.29914526435	143	2628.32291750209	1857.40564052116	158.510791924991	2859.30322015455	1324.31699621875	132.220957065105	2546.79490312917	1270.88604985003	147.262130949032	1939.92873861801	712.659781113361	130	1252.61185684425	900.771506169544	145	1158.10262507893	914.35574040035	143.441299197911	1632.54896075793	629.374766383891	159.085058119982	743.992584785336	1089.21499476201	155.011749802608	1711.19602602747	578.35391831718	147.257292121905	651.992507616509	1181.33602177044	144.004650252251	2171.25498709006	1302.65399930189	136	2193.17756109017	957.318487222516	143	1938.76684562776	1071.71483681934	147	1631.15371047577
410.470514420414	142.775790663465	766.382722834719	1321.56801223698	180	1980.94614168032	1548.64805678546	143	2626.15307323405	1856.7384893408	158.566417322572	2857.49344997442	1323.45714217453	132.189463360493	2543.96078855902	1270.29076844227	147.23139206267	1938.53490944683	712.15858168089	130	1251.65769452172	900.077932944659	145	1157.37309790811	914.013868850344	143.41742419649	1632.65664170487	628.923127050527	159.065807178367	743.959967060788	1088.86706473413	155.023779221956	1711.27740743039	578.17787409486	147.248509749152	651.976160371322	1181.15542024471	144.011749802608	2171.72933709595	1302.52883208483	136	2193.60916685005	957.355203953796	143	1939.5598961772	1071.67566365986	147	1631.60550329099
410.347928631694	142.832660177739	765.934594585413	1320.389094446	180.001327222897	1978.59262344679	1548.05230253571	143.001327222897	2624.28365832695	1856.05247231065	158.623282099245	2855.83748447076	1322.70906738446	132.155310402913	2541.69147985049	1269.73375693066	147.207783656711	1937.32229662029	711.682362121703	130	1250.8721276347	899.411199766941	145	1156.75915569778	913.804106714202	143.391360979828	1632.88701068811	628.539528929624	159.052473253798	743.968492047243	1088.68950859319	155.04072345119	1711.54660880878	578.08216703024	147.243839700195	652.029592484381	1181.03346654374	144.025106444853	2172.29469043932	1302.47129605092	136	2194.21103784956	957.410724670529	143	1940.40772816345	1071.67071498558	147	1632.14662092482
410.250181798172	142.886369820086	765.592334727807	1319.36096827496	180.004650252251	1976.67377716562	1547.61264503315	143.004650252251	2623.0286936343	1855.45417086848	158.678227922625	2854.64004488344	1322.15643950928	132.125659599262	2540.2542632643	1269.28857296747	147.195769296467	1936.50713868504	711.285402617024	130	1250.38303577731	898.826021222047	145	1156.35280918251	913.752595233125	143.365745634072	1633.27426577412	628.24607806491	159.047558443912	744.028517608781	1088.71520432185	155.061156926116	1712.03680202645	578.074259013911	147.244207230313	652.164288216344	1180.9921157424	144.045373703441	2173.03755819069	1302.47870356809	136	2195.0264758756	957.494583035712	143	1941.34202365737	1071.70709141373	147	1632.82172223202
